frame_index,host_receive_time,recording_sample_index,recording_elapsed_s,button_label,Channel1_raw,Channel2_raw,Channel 3_raw,Channel 4_raw,Channel1_display,Channel2_display,Channel 3_display,Channel 4_display
163433,2026-07-29T17:00:39.311+08:00,0,0.000000,0,1002,4,997,4,2.000000,4.000000,-3.000000,4.000000
163434,2026-07-29T17:00:39.311+08:00,1,0.002000,0,996,4,997,4,-4.000000,4.000000,-3.000000,4.000000
163435,2026-07-29T17:00:39.311+08:00,2,0.004000,0,993,4,999,4,-7.000000,4.000000,-1.000000,4.000000
163436,2026-07-29T17:00:39.311+08:00,3,0.006000,0,998,4,1000,4,-2.000000,4.000000,0.000000,4.000000
163437,2026-07-29T17:00:39.311+08:00,4,0.008000,0,1004,4,999,4,4.000000,4.000000,-1.000000,4.000000
163438,2026-07-29T17:00:39.311+08:00,5,0.010000,0,1003,4,1000,4,3.000000,4.000000,0.000000,4.000000
163439,2026-07-29T17:00:39.319+08:00,6,0.012000,0,999,4,1001,4,-1.000000,4.000000,1.000000,4.000000
163440,2026-07-29T17:00:39.319+08:00,7,0.014000,0,999,4,1001,4,-1.000000,4.000000,1.000000,4.000000
163441,2026-07-29T17:00:39.324+08:00,8,0.016000,0,1001,4,999,4,1.000000,4.000000,-1.000000,4.000000
163442,2026-07-29T17:00:39.324+08:00,9,0.018000,0,1000,4,998,4,0.000000,4.000000,-2.000000,4.000000
163443,2026-07-29T17:00:39.324+08:00,10,0.020000,0,994,4,999,4,-6.000000,4.000000,-1.000000,4.000000
163444,2026-07-29T17:00:39.324+08:00,11,0.022000,0,993,4,1000,4,-7.000000,4.000000,0.000000,4.000000
163445,2026-07-29T17:00:39.324+08:00,12,0.024000,0,1001,4,999,4,1.000000,4.000000,-1.000000,4.000000
163446,2026-07-29T17:00:39.324+08:00,13,0.026000,0,1010,4,999,4,10.000000,4.000000,-1.000000,4.000000
163447,2026-07-29T17:00:39.324+08:00,14,0.028000,0,1007,4,1000,2,7.000000,4.000000,0.000000,2.000000
163448,2026-07-29T17:00:39.359+08:00,15,0.030000,0,994,4,1002,2,-6.000000,4.000000,2.000000,2.000000
163449,2026-07-29T17:00:39.359+08:00,16,0.032000,0,987,4,1001,2,-13.000000,4.000000,1.000000,2.000000
163450,2026-07-29T17:00:39.359+08:00,17,0.034000,0,994,4,997,2,-6.000000,4.000000,-3.000000,2.000000
163451,2026-07-29T17:00:39.359+08:00,18,0.036000,0,1007,4,995,2,7.000000,4.000000,-5.000000,2.000000
163452,2026-07-29T17:00:39.359+08:00,19,0.038000,0,1011,4,998,2,11.000000,4.000000,-2.000000,2.000000
163453,2026-07-29T17:00:39.359+08:00,20,0.040000,0,1003,4,1003,2,3.000000,4.000000,3.000000,2.000000
163454,2026-07-29T17:00:39.359+08:00,21,0.042000,0,993,4,1005,2,-7.000000,4.000000,5.000000,2.000000
163455,2026-07-29T17:00:39.359+08:00,22,0.044000,0,992,4,1000,2,-8.000000,4.000000,0.000000,2.000000
163456,2026-07-29T17:00:39.359+08:00,23,0.046000,0,997,4,996,2,-3.000000,4.000000,-4.000000,2.000000
163457,2026-07-29T17:00:39.359+08:00,24,0.048000,0,1002,4,997,2,2.000000,4.000000,-3.000000,2.000000
163458,2026-07-29T17:00:39.359+08:00,25,0.050000,0,1003,4,1001,2,3.000000,4.000000,1.000000,2.000000
163459,2026-07-29T17:00:39.359+08:00,26,0.052000,0,1000,4,1002,2,0.000000,4.000000,2.000000,2.000000
163460,2026-07-29T17:00:39.359+08:00,27,0.054000,0,1000,4,1000,2,0.000000,4.000000,0.000000,2.000000
163461,2026-07-29T17:00:39.359+08:00,28,0.056000,0,1001,4,998,2,1.000000,4.000000,-2.000000,2.000000
163462,2026-07-29T17:00:39.363+08:00,29,0.058000,0,1000,4,999,2,0.000000,4.000000,-1.000000,2.000000
163463,2026-07-29T17:00:39.363+08:00,30,0.060000,0,998,4,1001,2,-2.000000,4.000000,1.000000,2.000000
163464,2026-07-29T17:00:39.363+08:00,31,0.062000,0,996,4,1001,2,-4.000000,4.000000,1.000000,2.000000
163465,2026-07-29T17:00:39.367+08:00,32,0.064000,0,998,4,998,2,-2.000000,4.000000,-2.000000,2.000000
163466,2026-07-29T17:00:39.367+08:00,33,0.066000,0,1001,4,997,2,1.000000,4.000000,-3.000000,2.000000
163467,2026-07-29T17:00:39.367+08:00,34,0.068000,0,1001,4,1001,2,1.000000,4.000000,1.000000,2.000000
163468,2026-07-29T17:00:39.371+08:00,35,0.070000,0,1000,4,1003,2,0.000000,4.000000,3.000000,2.000000
163469,2026-07-29T17:00:39.371+08:00,36,0.072000,0,1000,4,1000,2,0.000000,4.000000,0.000000,2.000000
163470,2026-07-29T17:00:39.371+08:00,37,0.074000,0,1000,4,995,2,0.000000,4.000000,-5.000000,2.000000
163471,2026-07-29T17:00:39.390+08:00,38,0.076000,0,1000,4,997,2,0.000000,4.000000,-3.000000,2.000000
163472,2026-07-29T17:00:39.390+08:00,39,0.078000,0,999,4,1003,2,-1.000000,4.000000,3.000000,2.000000
163473,2026-07-29T17:00:39.390+08:00,40,0.080000,0,997,4,1005,2,-3.000000,4.000000,5.000000,2.000000
163474,2026-07-29T17:00:39.390+08:00,41,0.082000,0,998,4,999,2,-2.000000,4.000000,-1.000000,2.000000
163475,2026-07-29T17:00:39.390+08:00,42,0.084000,0,1001,4,994,2,1.000000,4.000000,-6.000000,2.000000
163476,2026-07-29T17:00:39.390+08:00,43,0.086000,0,1002,4,996,2,2.000000,4.000000,-4.000000,2.000000
163477,2026-07-29T17:00:39.390+08:00,44,0.088000,0,1001,4,1002,2,1.000000,4.000000,2.000000,2.000000
163478,2026-07-29T17:00:39.397+08:00,45,0.090000,0,998,4,1005,2,-2.000000,4.000000,5.000000,2.000000
163479,2026-07-29T17:00:39.397+08:00,46,0.092000,0,997,4,1002,2,-3.000000,4.000000,2.000000,2.000000
163480,2026-07-29T17:00:39.397+08:00,47,0.094000,0,999,4,996,2,-1.000000,4.000000,-4.000000,2.000000
163481,2026-07-29T17:00:39.402+08:00,48,0.096000,0,1002,4,995,2,2.000000,4.000000,-5.000000,2.000000
163482,2026-07-29T17:00:39.402+08:00,49,0.098000,0,1003,4,999,2,3.000000,4.000000,-1.000000,2.000000
163483,2026-07-29T17:00:39.402+08:00,50,0.100000,0,1000,4,1002,2,0.000000,4.000000,2.000000,2.000000
163484,2026-07-29T17:00:39.406+08:00,51,0.102000,0,997,4,1001,2,-3.000000,4.000000,1.000000,2.000000
163485,2026-07-29T17:00:39.406+08:00,52,0.104000,0,996,4,998,2,-4.000000,4.000000,-2.000000,2.000000
163486,2026-07-29T17:00:39.440+08:00,53,0.106000,0,999,4,998,2,-1.000000,4.000000,-2.000000,2.000000
163487,2026-07-29T17:00:39.440+08:00,54,0.108000,0,1002,4,1000,2,2.000000,4.000000,0.000000,2.000000
163488,2026-07-29T17:00:39.440+08:00,55,0.110000,0,1001,4,1002,2,1.000000,4.000000,2.000000,2.000000
163489,2026-07-29T17:00:39.440+08:00,56,0.112000,0,998,4,1000,2,-2.000000,4.000000,0.000000,2.000000
163490,2026-07-29T17:00:39.440+08:00,57,0.114000,0,997,4,997,2,-3.000000,4.000000,-3.000000,2.000000
163491,2026-07-29T17:00:39.440+08:00,58,0.116000,0,1000,4,997,2,0.000000,4.000000,-3.000000,2.000000
163492,2026-07-29T17:00:39.440+08:00,59,0.118000,0,1003,4,1001,2,3.000000,4.000000,1.000000,2.000000
163493,2026-07-29T17:00:39.440+08:00,60,0.120000,0,1003,4,1003,2,3.000000,4.000000,3.000000,2.000000
163494,2026-07-29T17:00:39.440+08:00,61,0.122000,0,999,4,1000,2,-1.000000,4.000000,0.000000,2.000000
163495,2026-07-29T17:00:39.440+08:00,62,0.124000,0,994,4,996,2,-6.000000,4.000000,-4.000000,2.000000
163496,2026-07-29T17:00:39.440+08:00,63,0.126000,0,994,4,997,2,-6.000000,4.000000,-3.000000,2.000000
163497,2026-07-29T17:00:39.440+08:00,64,0.128000,0,1000,4,1001,2,0.000000,4.000000,1.000000,2.000000
163498,2026-07-29T17:00:39.440+08:00,65,0.130000,0,1006,4,1003,2,6.000000,4.000000,3.000000,2.000000
163499,2026-07-29T17:00:39.440+08:00,66,0.132000,0,1005,4,1001,2,5.000000,4.000000,1.000000,2.000000
163500,2026-07-29T17:00:39.440+08:00,67,0.134000,0,997,4,996,2,-3.000000,4.000000,-4.000000,2.000000
163501,2026-07-29T17:00:39.440+08:00,68,0.136000,0,993,4,997,2,-7.000000,4.000000,-3.000000,2.000000
163502,2026-07-29T17:00:39.440+08:00,69,0.138000,0,997,4,1001,2,-3.000000,4.000000,1.000000,2.000000
163503,2026-07-29T17:00:39.440+08:00,70,0.140000,0,1003,4,1003,2,3.000000,4.000000,3.000000,2.000000
163504,2026-07-29T17:00:39.442+08:00,71,0.142000,0,1003,4,1001,2,3.000000,4.000000,1.000000,2.000000
163505,2026-07-29T17:00:39.442+08:00,72,0.144000,0,999,4,998,2,-1.000000,4.000000,-2.000000,2.000000
163506,2026-07-29T17:00:39.442+08:00,73,0.146000,0,996,4,997,2,-4.000000,4.000000,-3.000000,2.000000
163507,2026-07-29T17:00:39.443+08:00,74,0.148000,0,998,4,999,2,-2.000000,4.000000,-1.000000,2.000000
163508,2026-07-29T17:00:39.464+08:00,75,0.150000,0,1001,4,1000,2,1.000000,4.000000,0.000000,2.000000
163509,2026-07-29T17:00:39.464+08:00,76,0.152000,0,1000,4,1001,2,0.000000,4.000000,1.000000,2.000000
163510,2026-07-29T17:00:39.464+08:00,77,0.154000,0,999,4,1001,2,-1.000000,4.000000,1.000000,2.000000
163511,2026-07-29T17:00:39.464+08:00,78,0.156000,0,1000,4,998,2,0.000000,4.000000,-2.000000,2.000000
163512,2026-07-29T17:00:39.464+08:00,79,0.158000,0,1002,4,997,2,2.000000,4.000000,-3.000000,2.000000
163513,2026-07-29T17:00:39.464+08:00,80,0.160000,0,1000,4,999,2,0.000000,4.000000,-1.000000,2.000000
163514,2026-07-29T17:00:39.464+08:00,81,0.162000,0,997,4,1002,2,-3.000000,4.000000,2.000000,2.000000
163515,2026-07-29T17:00:39.464+08:00,82,0.164000,0,996,4,1001,2,-4.000000,4.000000,1.000000,2.000000
163516,2026-07-29T17:00:39.476+08:00,83,0.166000,0,999,4,998,2,-1.000000,4.000000,-2.000000,2.000000
163517,2026-07-29T17:00:39.476+08:00,84,0.168000,0,1002,4,997,2,2.000000,4.000000,-3.000000,2.000000
163518,2026-07-29T17:00:39.476+08:00,85,0.170000,0,1002,4,1000,2,2.000000,4.000000,0.000000,2.000000
163519,2026-07-29T17:00:39.476+08:00,86,0.172000,0,1000,4,1003,2,0.000000,4.000000,3.000000,2.000000
163520,2026-07-29T17:00:39.476+08:00,87,0.174000,0,998,4,1001,2,-2.000000,4.000000,1.000000,2.000000
163521,2026-07-29T17:00:39.476+08:00,88,0.176000,0,998,4,997,2,-2.000000,4.000000,-3.000000,2.000000
163522,2026-07-29T17:00:39.476+08:00,89,0.178000,0,1000,4,996,2,0.000000,4.000000,-4.000000,2.000000
163523,2026-07-29T17:00:39.496+08:00,90,0.180000,0,1002,4,998,2,2.000000,4.000000,-2.000000,2.000000
163524,2026-07-29T17:00:39.496+08:00,91,0.182000,0,1001,4,1002,2,1.000000,4.000000,2.000000,2.000000
163525,2026-07-29T17:00:39.496+08:00,92,0.184000,0,998,4,1003,2,-2.000000,4.000000,3.000000,2.000000
163526,2026-07-29T17:00:39.496+08:00,93,0.186000,0,996,4,1000,2,-4.000000,4.000000,0.000000,2.000000
163527,2026-07-29T17:00:39.496+08:00,94,0.188000,0,998,4,997,2,-2.000000,4.000000,-3.000000,2.000000
163528,2026-07-29T17:00:39.496+08:00,95,0.190000,0,1001,4,998,2,1.000000,4.000000,-2.000000,2.000000
163529,2026-07-29T17:00:39.496+08:00,96,0.192000,0,1002,4,1000,2,2.000000,4.000000,0.000000,2.000000
163530,2026-07-29T17:00:39.496+08:00,97,0.194000,0,1000,4,1000,2,0.000000,4.000000,0.000000,2.000000
163531,2026-07-29T17:00:39.516+08:00,98,0.196000,0,998,4,999,2,-2.000000,4.000000,-1.000000,2.000000
163532,2026-07-29T17:00:39.516+08:00,99,0.198000,0,998,4,1000,2,-2.000000,4.000000,0.000000,2.000000
163533,2026-07-29T17:00:39.516+08:00,100,0.200000,0,1000,4,1000,2,0.000000,4.000000,0.000000,2.000000
163534,2026-07-29T17:00:39.516+08:00,101,0.202000,0,1001,4,1000,2,1.000000,4.000000,0.000000,2.000000
163535,2026-07-29T17:00:39.516+08:00,102,0.204000,0,999,4,999,2,-1.000000,4.000000,-1.000000,2.000000
163536,2026-07-29T17:00:39.516+08:00,103,0.206000,0,996,4,999,2,-4.000000,4.000000,-1.000000,2.000000
163537,2026-07-29T17:00:39.516+08:00,104,0.208000,0,996,4,1000,2,-4.000000,4.000000,0.000000,2.000000
163538,2026-07-29T17:00:39.516+08:00,105,0.210000,0,1001,4,1000,2,1.000000,4.000000,0.000000,2.000000
163539,2026-07-29T17:00:39.516+08:00,106,0.212000,0,1005,4,999,2,5.000000,4.000000,-1.000000,2.000000
163540,2026-07-29T17:00:39.516+08:00,107,0.214000,0,1003,4,998,2,3.000000,4.000000,-2.000000,2.000000
163541,2026-07-29T17:00:39.516+08:00,108,0.216000,0,998,4,999,2,-2.000000,4.000000,-1.000000,2.000000
163542,2026-07-29T17:00:39.517+08:00,109,0.218000,0,995,4,1002,2,-5.000000,4.000000,2.000000,2.000000
163543,2026-07-29T17:00:39.517+08:00,110,0.220000,0,997,4,1002,2,-3.000000,4.000000,2.000000,2.000000
163544,2026-07-29T17:00:39.517+08:00,111,0.222000,0,1001,4,998,2,1.000000,4.000000,-2.000000,2.000000
163545,2026-07-29T17:00:39.519+08:00,112,0.224000,0,1002,4,995,2,2.000000,4.000000,-5.000000,2.000000
163546,2026-07-29T17:00:39.537+08:00,113,0.226000,0,1001,4,997,2,1.000000,4.000000,-3.000000,2.000000
163547,2026-07-29T17:00:39.537+08:00,114,0.228000,0,1000,4,1003,2,0.000000,4.000000,3.000000,2.000000
163548,2026-07-29T17:00:39.537+08:00,115,0.230000,0,999,4,1005,2,-1.000000,4.000000,5.000000,2.000000
163549,2026-07-29T17:00:39.537+08:00,116,0.232000,0,996,4,1000,2,-4.000000,4.000000,0.000000,2.000000
163550,2026-07-29T17:00:39.537+08:00,117,0.234000,0,996,4,994,2,-4.000000,4.000000,-6.000000,2.000000
163551,2026-07-29T17:00:39.537+08:00,118,0.236000,0,1001,4,995,2,1.000000,4.000000,-5.000000,2.000000
163552,2026-07-29T17:00:39.537+08:00,119,0.238000,0,1006,4,1001,2,6.000000,4.000000,1.000000,2.000000
163553,2026-07-29T17:00:39.537+08:00,120,0.240000,0,1004,4,1005,2,4.000000,4.000000,5.000000,2.000000
163554,2026-07-29T17:00:39.554+08:00,121,0.242000,0,997,4,1003,2,-3.000000,4.000000,3.000000,2.000000
163555,2026-07-29T17:00:39.554+08:00,122,0.244000,0,992,4,997,2,-8.000000,4.000000,-3.000000,2.000000
163556,2026-07-29T17:00:39.554+08:00,123,0.246000,0,996,4,994,2,-4.000000,4.000000,-6.000000,2.000000
163557,2026-07-29T17:00:39.554+08:00,124,0.248000,0,1002,4,998,2,2.000000,4.000000,-2.000000,2.000000
163558,2026-07-29T17:00:39.554+08:00,125,0.250000,0,1004,4,1003,2,4.000000,4.000000,3.000000,2.000000
163559,2026-07-29T17:00:39.554+08:00,126,0.252000,0,1000,4,1004,2,0.000000,4.000000,4.000000,2.000000
163560,2026-07-29T17:00:39.554+08:00,127,0.254000,0,998,4,1000,2,-2.000000,4.000000,0.000000,2.000000
163561,2026-07-29T17:00:39.572+08:00,128,0.256000,0,1000,4,996,2,0.000000,4.000000,-4.000000,2.000000
163562,2026-07-29T17:00:39.572+08:00,129,0.258000,0,1002,4,997,2,2.000000,4.000000,-3.000000,2.000000
163563,2026-07-29T17:00:39.572+08:00,130,0.260000,0,1000,4,1000,2,0.000000,4.000000,0.000000,2.000000
163564,2026-07-29T17:00:39.572+08:00,131,0.262000,0,995,4,1002,2,-5.000000,4.000000,2.000000,2.000000
163565,2026-07-29T17:00:39.572+08:00,132,0.264000,0,996,4,1001,2,-4.000000,4.000000,1.000000,2.000000
163566,2026-07-29T17:00:39.572+08:00,133,0.266000,0,1001,4,1000,2,1.000000,4.000000,0.000000,2.000000
163567,2026-07-29T17:00:39.572+08:00,134,0.268000,0,1004,4,999,2,4.000000,4.000000,-1.000000,2.000000
163568,2026-07-29T17:00:39.572+08:00,135,0.270000,0,1002,4,997,2,2.000000,4.000000,-3.000000,2.000000
163569,2026-07-29T17:00:39.592+08:00,136,0.272000,0,998,4,998,2,-2.000000,4.000000,-2.000000,2.000000
163570,2026-07-29T17:00:39.592+08:00,137,0.274000,0,997,4,1000,2,-3.000000,4.000000,0.000000,2.000000
163571,2026-07-29T17:00:39.592+08:00,138,0.276000,0,999,4,1003,2,-1.000000,4.000000,3.000000,2.000000
163572,2026-07-29T17:00:39.592+08:00,139,0.278000,0,1000,4,1003,2,0.000000,4.000000,3.000000,2.000000
163573,2026-07-29T17:00:39.592+08:00,140,0.280000,0,999,4,999,2,-1.000000,4.000000,-1.000000,2.000000
163574,2026-07-29T17:00:39.592+08:00,141,0.282000,0,999,4,995,2,-1.000000,4.000000,-5.000000,2.000000
163575,2026-07-29T17:00:39.592+08:00,142,0.284000,0,1001,2,996,2,1.000000,2.000000,-4.000000,2.000000
163576,2026-07-29T17:00:39.592+08:00,143,0.286000,0,1001,2,1000,2,1.000000,2.000000,0.000000,2.000000
163577,2026-07-29T17:00:39.592+08:00,144,0.288000,0,999,2,1004,2,-1.000000,2.000000,4.000000,2.000000
163578,2026-07-29T17:00:39.592+08:00,145,0.290000,0,996,2,1003,2,-4.000000,2.000000,3.000000,2.000000
163579,2026-07-29T17:00:39.592+08:00,146,0.292000,0,996,2,999,2,-4.000000,2.000000,-1.000000,2.000000
163580,2026-07-29T17:00:39.594+08:00,147,0.294000,0,1000,2,997,2,0.000000,2.000000,-3.000000,2.000000
163581,2026-07-29T17:00:39.594+08:00,148,0.296000,0,1004,2,998,2,4.000000,2.000000,-2.000000,2.000000
163582,2026-07-29T17:00:39.594+08:00,149,0.298000,0,1004,2,999,2,4.000000,2.000000,-1.000000,2.000000
163583,2026-07-29T17:00:39.605+08:00,150,0.300000,0,999,2,999,2,-1.000000,2.000000,-1.000000,2.000000
163584,2026-07-29T17:00:39.605+08:00,151,0.302000,0,995,2,1000,2,-5.000000,2.000000,0.000000,2.000000
163585,2026-07-29T17:00:39.605+08:00,152,0.304000,0,996,2,1002,2,-4.000000,2.000000,2.000000,2.000000
163586,2026-07-29T17:00:39.608+08:00,153,0.306000,0,999,2,1002,2,-1.000000,2.000000,2.000000,2.000000
163587,2026-07-29T17:00:39.608+08:00,154,0.308000,0,1001,2,999,2,1.000000,2.000000,-1.000000,2.000000
163588,2026-07-29T17:00:39.608+08:00,155,0.310000,0,1001,2,997,2,1.000000,2.000000,-3.000000,2.000000
163589,2026-07-29T17:00:39.611+08:00,156,0.312000,0,1001,2,997,2,1.000000,2.000000,-3.000000,2.000000
163590,2026-07-29T17:00:39.611+08:00,157,0.314000,0,1001,2,999,2,1.000000,2.000000,-1.000000,2.000000
163591,2026-07-29T17:00:39.623+08:00,158,0.316000,0,1000,2,1000,2,0.000000,2.000000,0.000000,2.000000
163592,2026-07-29T17:00:39.623+08:00,159,0.318000,0,998,2,1002,2,-2.000000,2.000000,2.000000,2.000000
163593,2026-07-29T17:00:39.623+08:00,160,0.320000,0,998,2,1003,2,-2.000000,2.000000,3.000000,2.000000
163594,2026-07-29T17:00:39.623+08:00,161,0.322000,0,999,2,1002,2,-1.000000,2.000000,2.000000,2.000000
163595,2026-07-29T17:00:39.623+08:00,162,0.324000,0,1000,2,997,2,0.000000,2.000000,-3.000000,2.000000
163596,2026-07-29T17:00:39.623+08:00,163,0.326000,0,999,2,994,2,-1.000000,2.000000,-6.000000,2.000000
163597,2026-07-29T17:00:39.623+08:00,164,0.328000,0,998,2,996,2,-2.000000,2.000000,-4.000000,2.000000
163598,2026-07-29T17:00:39.652+08:00,165,0.330000,0,1000,2,1002,2,0.000000,2.000000,2.000000,2.000000
163599,2026-07-29T17:00:39.652+08:00,166,0.332000,0,1003,2,1007,2,3.000000,2.000000,7.000000,2.000000
163600,2026-07-29T17:00:39.652+08:00,167,0.334000,0,1001,2,1004,2,1.000000,2.000000,4.000000,2.000000
163601,2026-07-29T17:00:39.652+08:00,168,0.336000,0,996,2,996,2,-4.000000,2.000000,-4.000000,2.000000
163602,2026-07-29T17:00:39.652+08:00,169,0.338000,0,996,2,992,2,-4.000000,2.000000,-8.000000,2.000000
163603,2026-07-29T17:00:39.652+08:00,170,0.340000,0,1000,2,996,2,0.000000,2.000000,-4.000000,2.000000
163604,2026-07-29T17:00:39.672+08:00,171,0.342000,0,1004,2,1002,2,4.000000,2.000000,2.000000,2.000000
163605,2026-07-29T17:00:39.672+08:00,172,0.344000,0,1002,2,1005,2,2.000000,2.000000,5.000000,2.000000
163606,2026-07-29T17:00:39.672+08:00,173,0.346000,0,997,2,1002,2,-3.000000,2.000000,2.000000,2.000000
163607,2026-07-29T17:00:39.672+08:00,174,0.348000,0,995,2,998,2,-5.000000,2.000000,-2.000000,2.000000
163608,2026-07-29T17:00:39.672+08:00,175,0.350000,0,998,2,997,2,-2.000000,2.000000,-3.000000,2.000000
163609,2026-07-29T17:00:39.672+08:00,176,0.352000,0,1001,2,998,2,1.000000,2.000000,-2.000000,2.000000
163610,2026-07-29T17:00:39.672+08:00,177,0.354000,0,1002,2,998,2,2.000000,2.000000,-2.000000,2.000000
163611,2026-07-29T17:00:39.672+08:00,178,0.356000,0,1001,2,999,2,1.000000,2.000000,-1.000000,2.000000
163612,2026-07-29T17:00:39.672+08:00,179,0.358000,0,1001,2,1002,2,1.000000,2.000000,2.000000,2.000000
163613,2026-07-29T17:00:39.672+08:00,180,0.360000,0,1000,2,1002,2,0.000000,2.000000,2.000000,2.000000
163614,2026-07-29T17:00:39.672+08:00,181,0.362000,0,998,2,1000,2,-2.000000,2.000000,0.000000,2.000000
163615,2026-07-29T17:00:39.672+08:00,182,0.364000,0,996,2,996,2,-4.000000,2.000000,-4.000000,2.000000
163616,2026-07-29T17:00:39.672+08:00,183,0.366000,0,997,2,996,2,-3.000000,2.000000,-4.000000,2.000000
163617,2026-07-29T17:00:39.672+08:00,184,0.368000,0,1001,2,1000,2,1.000000,2.000000,0.000000,2.000000
163618,2026-07-29T17:00:39.672+08:00,185,0.370000,0,1003,2,1004,2,3.000000,2.000000,4.000000,2.000000
163619,2026-07-29T17:00:39.672+08:00,186,0.372000,0,1001,2,1002,2,1.000000,2.000000,2.000000,2.000000
163620,2026-07-29T17:00:39.672+08:00,187,0.374000,0,999,2,997,2,-1.000000,2.000000,-3.000000,2.000000
163621,2026-07-29T17:00:39.679+08:00,188,0.376000,0,998,2,994,2,-2.000000,2.000000,-6.000000,2.000000
163622,2026-07-29T17:00:39.679+08:00,189,0.378000,0,1000,2,998,2,0.000000,2.000000,-2.000000,2.000000
163623,2026-07-29T17:00:39.679+08:00,190,0.380000,0,1001,2,1004,2,1.000000,2.000000,4.000000,2.000000
163624,2026-07-29T17:00:39.682+08:00,191,0.382000,0,998,2,1006,2,-2.000000,2.000000,6.000000,2.000000
163625,2026-07-29T17:00:39.682+08:00,192,0.384000,0,996,2,999,2,-4.000000,2.000000,-1.000000,2.000000
163626,2026-07-29T17:00:39.682+08:00,193,0.386000,0,999,2,992,2,-1.000000,2.000000,-8.000000,2.000000
163627,2026-07-29T17:00:39.685+08:00,194,0.388000,0,1003,2,994,2,3.000000,2.000000,-6.000000,2.000000
163628,2026-07-29T17:00:39.705+08:00,195,0.390000,0,1003,2,1003,2,3.000000,2.000000,3.000000,2.000000
163629,2026-07-29T17:00:39.705+08:00,196,0.392000,0,999,2,1007,2,-1.000000,2.000000,7.000000,2.000000
163630,2026-07-29T17:00:39.705+08:00,197,0.394000,0,995,2,1002,2,-5.000000,2.000000,2.000000,2.000000
163631,2026-07-29T17:00:39.705+08:00,198,0.396000,0,998,2,994,2,-2.000000,2.000000,-6.000000,2.000000
163632,2026-07-29T17:00:39.705+08:00,199,0.398000,0,1002,2,993,2,2.000000,2.000000,-7.000000,2.000000
163633,2026-07-29T17:00:39.705+08:00,200,0.400000,0,1002,2,999,2,2.000000,2.000000,-1.000000,2.000000
163634,2026-07-29T17:00:39.705+08:00,201,0.402000,0,999,2,1005,2,-1.000000,2.000000,5.000000,2.000000
163635,2026-07-29T17:00:39.705+08:00,202,0.404000,0,996,2,1004,4,-4.000000,2.000000,4.000000,4.000000
163636,2026-07-29T17:00:39.710+08:00,203,0.406000,0,998,2,998,4,-2.000000,2.000000,-2.000000,4.000000
163637,2026-07-29T17:00:39.744+08:00,204,0.408000,0,1002,2,995,4,2.000000,2.000000,-5.000000,4.000000
163638,2026-07-29T17:00:39.744+08:00,205,0.410000,0,1002,2,997,4,2.000000,2.000000,-3.000000,4.000000
163639,2026-07-29T17:00:39.744+08:00,206,0.412000,0,998,2,1002,4,-2.000000,2.000000,2.000000,4.000000
163640,2026-07-29T17:00:39.744+08:00,207,0.414000,0,996,2,1003,4,-4.000000,2.000000,3.000000,4.000000
163641,2026-07-29T17:00:39.744+08:00,208,0.416000,0,1000,2,1000,4,0.000000,2.000000,0.000000,4.000000
163642,2026-07-29T17:00:39.744+08:00,209,0.418000,0,1004,2,997,4,4.000000,2.000000,-3.000000,4.000000
163643,2026-07-29T17:00:39.744+08:00,210,0.420000,0,1002,2,996,4,2.000000,2.000000,-4.000000,4.000000
163644,2026-07-29T17:00:39.744+08:00,211,0.422000,0,997,2,999,4,-3.000000,2.000000,-1.000000,4.000000
163645,2026-07-29T17:00:39.744+08:00,212,0.424000,0,995,2,1003,4,-5.000000,2.000000,3.000000,4.000000
163646,2026-07-29T17:00:39.744+08:00,213,0.426000,0,997,2,1004,4,-3.000000,2.000000,4.000000,4.000000
163647,2026-07-29T17:00:39.744+08:00,214,0.428000,0,1001,2,1000,4,1.000000,2.000000,0.000000,4.000000
163648,2026-07-29T17:00:39.744+08:00,215,0.430000,0,1002,2,995,4,2.000000,2.000000,-5.000000,4.000000
163649,2026-07-29T17:00:39.744+08:00,216,0.432000,0,1000,2,995,4,0.000000,2.000000,-5.000000,4.000000
163650,2026-07-29T17:00:39.744+08:00,217,0.434000,0,999,2,1000,4,-1.000000,2.000000,0.000000,4.000000
163651,2026-07-29T17:00:39.744+08:00,218,0.436000,0,1000,2,1003,4,0.000000,2.000000,3.000000,4.000000
163652,2026-07-29T17:00:39.744+08:00,219,0.438000,0,1001,2,1002,4,1.000000,2.000000,2.000000,4.000000
163653,2026-07-29T17:00:39.744+08:00,220,0.440000,0,1001,2,999,4,1.000000,2.000000,-1.000000,4.000000
163654,2026-07-29T17:00:39.744+08:00,221,0.442000,0,997,2,999,4,-3.000000,2.000000,-1.000000,4.000000
163655,2026-07-29T17:00:39.744+08:00,222,0.444000,0,994,2,1000,4,-6.000000,2.000000,0.000000,4.000000
163656,2026-07-29T17:00:39.744+08:00,223,0.446000,0,997,2,998,4,-3.000000,2.000000,-2.000000,4.000000
163657,2026-07-29T17:00:39.745+08:00,224,0.448000,0,1004,2,996,4,4.000000,2.000000,-4.000000,4.000000
163658,2026-07-29T17:00:39.745+08:00,225,0.450000,0,1006,2,999,4,6.000000,2.000000,-1.000000,4.000000
163659,2026-07-29T17:00:39.755+08:00,226,0.452000,0,1001,2,1005,4,1.000000,2.000000,5.000000,4.000000
163660,2026-07-29T17:00:39.755+08:00,227,0.454000,0,994,2,1006,4,-6.000000,2.000000,6.000000,4.000000
163661,2026-07-29T17:00:39.755+08:00,228,0.456000,0,993,2,999,4,-7.000000,2.000000,-1.000000,4.000000
163662,2026-07-29T17:00:39.759+08:00,229,0.458000,0,999,2,993,4,-1.000000,2.000000,-7.000000,4.000000
163663,2026-07-29T17:00:39.759+08:00,230,0.460000,0,1005,2,995,4,5.000000,2.000000,-5.000000,4.000000
163664,2026-07-29T17:00:39.759+08:00,231,0.462000,0,1005,2,1000,4,5.000000,2.000000,0.000000,4.000000
163665,2026-07-29T17:00:39.759+08:00,232,0.464000,0,999,2,1003,4,-1.000000,2.000000,3.000000,4.000000
163666,2026-07-29T17:00:39.771+08:00,233,0.466000,0,994,2,1002,4,-6.000000,2.000000,2.000000,4.000000
163667,2026-07-29T17:00:39.771+08:00,234,0.468000,0,995,2,1001,4,-5.000000,2.000000,1.000000,4.000000
163668,2026-07-29T17:00:39.771+08:00,235,0.470000,0,999,2,1001,4,-1.000000,2.000000,1.000000,4.000000
163669,2026-07-29T17:00:39.785+08:00,236,0.472000,0,1003,2,999,4,3.000000,2.000000,-1.000000,4.000000
163670,2026-07-29T17:00:39.785+08:00,237,0.474000,0,1003,2,995,4,3.000000,2.000000,-5.000000,4.000000
163671,2026-07-29T17:00:39.785+08:00,238,0.476000,0,1000,2,994,4,0.000000,2.000000,-6.000000,4.000000
163672,2026-07-29T17:00:39.785+08:00,239,0.478000,0,999,2,1001,4,-1.000000,2.000000,1.000000,4.000000
163673,2026-07-29T17:00:39.785+08:00,240,0.480000,0,999,2,1007,4,-1.000000,2.000000,7.000000,4.000000
163674,2026-07-29T17:00:39.785+08:00,241,0.482000,0,999,2,1005,4,-1.000000,2.000000,5.000000,4.000000
163675,2026-07-29T17:00:39.785+08:00,242,0.484000,0,997,2,997,4,-3.000000,2.000000,-3.000000,4.000000
163676,2026-07-29T17:00:39.816+08:00,243,0.486000,0,997,2,991,4,-3.000000,2.000000,-9.000000,4.000000
163677,2026-07-29T17:00:39.816+08:00,244,0.488000,0,999,2,995,4,-1.000000,2.000000,-5.000000,4.000000
163678,2026-07-29T17:00:39.816+08:00,245,0.490000,0,1003,2,1003,4,3.000000,2.000000,3.000000,4.000000
163679,2026-07-29T17:00:39.816+08:00,246,0.492000,0,1004,2,1005,4,4.000000,2.000000,5.000000,4.000000
163680,2026-07-29T17:00:39.816+08:00,247,0.494000,0,1001,2,1001,4,1.000000,2.000000,1.000000,4.000000
163681,2026-07-29T17:00:39.816+08:00,248,0.496000,0,997,2,998,4,-3.000000,2.000000,-2.000000,4.000000
163682,2026-07-29T17:00:39.817+08:00,249,0.498000,0,995,2,998,4,-5.000000,2.000000,-2.000000,4.000000
163683,2026-07-29T17:00:39.817+08:00,250,0.500000,0,997,2,998,4,-3.000000,2.000000,-2.000000,4.000000
163684,2026-07-29T17:00:39.817+08:00,251,0.502000,0,1002,2,998,4,2.000000,2.000000,-2.000000,4.000000
163685,2026-07-29T17:00:39.817+08:00,252,0.504000,0,1003,2,999,4,3.000000,2.000000,-1.000000,4.000000
163686,2026-07-29T17:00:39.817+08:00,253,0.506000,0,1000,2,1001,4,0.000000,2.000000,1.000000,4.000000
163687,2026-07-29T17:00:39.817+08:00,254,0.508000,0,997,2,1003,4,-3.000000,2.000000,3.000000,4.000000
163688,2026-07-29T17:00:39.817+08:00,255,0.510000,0,997,2,1001,4,-3.000000,2.000000,1.000000,4.000000
163689,2026-07-29T17:00:39.817+08:00,256,0.512000,0,1000,2,997,4,0.000000,2.000000,-3.000000,4.000000
163690,2026-07-29T17:00:39.817+08:00,257,0.514000,0,1001,2,996,4,1.000000,2.000000,-4.000000,4.000000
163691,2026-07-29T17:00:39.817+08:00,258,0.516000,0,1001,2,999,4,1.000000,2.000000,-1.000000,4.000000
163692,2026-07-29T17:00:39.817+08:00,259,0.518000,0,1000,2,1002,4,0.000000,2.000000,2.000000,4.000000
163693,2026-07-29T17:00:39.817+08:00,260,0.520000,0,1000,2,1001,4,0.000000,2.000000,1.000000,4.000000
163694,2026-07-29T17:00:39.817+08:00,261,0.522000,0,999,2,999,4,-1.000000,2.000000,-1.000000,4.000000
163695,2026-07-29T17:00:39.819+08:00,262,0.524000,0,998,2,999,4,-2.000000,2.000000,-1.000000,4.000000
163696,2026-07-29T17:00:39.830+08:00,263,0.526000,0,999,2,1000,4,-1.000000,2.000000,0.000000,4.000000
163697,2026-07-29T17:00:39.830+08:00,264,0.528000,0,1000,2,1000,4,0.000000,2.000000,0.000000,4.000000
163698,2026-07-29T17:00:39.830+08:00,265,0.530000,0,999,2,1000,4,-1.000000,2.000000,0.000000,4.000000
163699,2026-07-29T17:00:39.832+08:00,266,0.532000,0,999,2,999,4,-1.000000,2.000000,-1.000000,4.000000
163700,2026-07-29T17:00:39.832+08:00,267,0.534000,0,1000,2,999,4,0.000000,2.000000,-1.000000,4.000000
163701,2026-07-29T17:00:39.832+08:00,268,0.536000,0,1002,2,999,4,2.000000,2.000000,-1.000000,4.000000
163702,2026-07-29T17:00:39.835+08:00,269,0.538000,0,1001,2,999,4,1.000000,2.000000,-1.000000,4.000000
163703,2026-07-29T17:00:39.856+08:00,270,0.540000,0,999,2,1000,4,-1.000000,2.000000,0.000000,4.000000
163704,2026-07-29T17:00:39.856+08:00,271,0.542000,0,997,2,1001,4,-3.000000,2.000000,1.000000,4.000000
163705,2026-07-29T17:00:39.856+08:00,272,0.544000,0,996,2,1000,4,-4.000000,2.000000,0.000000,4.000000
163706,2026-07-29T17:00:39.856+08:00,273,0.546000,0,998,2,999,4,-2.000000,2.000000,-1.000000,4.000000
163707,2026-07-29T17:00:39.856+08:00,274,0.548000,0,1001,2,999,4,1.000000,2.000000,-1.000000,4.000000
163708,2026-07-29T17:00:39.856+08:00,275,0.550000,0,1003,2,1000,4,3.000000,2.000000,0.000000,4.000000
163709,2026-07-29T17:00:39.862+08:00,276,0.552000,0,1002,2,998,4,2.000000,2.000000,-2.000000,4.000000
163710,2026-07-29T17:00:39.862+08:00,277,0.554000,0,998,2,996,4,-2.000000,2.000000,-4.000000,4.000000
163711,2026-07-29T17:00:39.862+08:00,278,0.556000,0,997,2,999,4,-3.000000,2.000000,-1.000000,4.000000
163712,2026-07-29T17:00:39.862+08:00,279,0.558000,0,999,2,1005,4,-1.000000,2.000000,5.000000,4.000000
163713,2026-07-29T17:00:39.862+08:00,280,0.560000,0,1001,2,1005,4,1.000000,2.000000,5.000000,4.000000
163714,2026-07-29T17:00:39.862+08:00,281,0.562000,0,1000,2,998,4,0.000000,2.000000,-2.000000,4.000000
163715,2026-07-29T17:00:39.862+08:00,282,0.564000,0,998,2,992,4,-2.000000,2.000000,-8.000000,4.000000
163716,2026-07-29T17:00:39.862+08:00,283,0.566000,0,999,2,994,4,-1.000000,2.000000,-6.000000,4.000000
163717,2026-07-29T17:00:39.867+08:00,284,0.568000,0,1000,2,1002,4,0.000000,2.000000,2.000000,4.000000
163718,2026-07-29T17:00:39.867+08:00,285,0.570000,0,1001,2,1007,4,1.000000,2.000000,7.000000,4.000000
163719,2026-07-29T17:00:39.880+08:00,286,0.572000,0,999,2,1003,4,-1.000000,2.000000,3.000000,4.000000
163720,2026-07-29T17:00:39.880+08:00,287,0.574000,0,998,2,996,4,-2.000000,2.000000,-4.000000,4.000000
163721,2026-07-29T17:00:39.880+08:00,288,0.576000,0,999,2,994,4,-1.000000,2.000000,-6.000000,4.000000
163722,2026-07-29T17:00:39.880+08:00,289,0.578000,0,1002,2,998,4,2.000000,2.000000,-2.000000,4.000000
163723,2026-07-29T17:00:39.880+08:00,290,0.580000,0,1001,2,1003,4,1.000000,2.000000,3.000000,4.000000
163724,2026-07-29T17:00:39.880+08:00,291,0.582000,0,999,2,1002,4,-1.000000,2.000000,2.000000,4.000000
163725,2026-07-29T17:00:39.880+08:00,292,0.584000,0,997,2,999,4,-3.000000,2.000000,-1.000000,4.000000
163726,2026-07-29T17:00:39.899+08:00,293,0.586000,0,998,2,998,4,-2.000000,2.000000,-2.000000,4.000000
163727,2026-07-29T17:00:39.899+08:00,294,0.588000,0,1001,2,1001,4,1.000000,2.000000,1.000000,4.000000
163728,2026-07-29T17:00:39.899+08:00,295,0.590000,0,1000,2,1002,4,0.000000,2.000000,2.000000,4.000000
163729,2026-07-29T17:00:39.899+08:00,296,0.592000,0,998,2,999,4,-2.000000,2.000000,-1.000000,4.000000
163730,2026-07-29T17:00:39.899+08:00,297,0.594000,0,1000,2,995,4,0.000000,2.000000,-5.000000,4.000000
163731,2026-07-29T17:00:39.899+08:00,298,0.596000,0,1004,2,997,4,4.000000,2.000000,-3.000000,4.000000
163732,2026-07-29T17:00:39.899+08:00,299,0.598000,0,1004,2,1003,4,4.000000,2.000000,3.000000,4.000000
163733,2026-07-29T17:00:39.904+08:00,300,0.600000,0,998,2,1005,4,-2.000000,2.000000,5.000000,4.000000
163734,2026-07-29T17:00:39.904+08:00,301,0.602000,0,992,2,1000,4,-8.000000,2.000000,0.000000,4.000000
163735,2026-07-29T17:00:39.904+08:00,302,0.604000,0,995,2,995,4,-5.000000,2.000000,-5.000000,4.000000
163736,2026-07-29T17:00:39.907+08:00,303,0.606000,0,1002,2,997,4,2.000000,2.000000,-3.000000,4.000000
163737,2026-07-29T17:00:39.907+08:00,304,0.608000,0,1006,2,1001,4,6.000000,2.000000,1.000000,4.000000
163738,2026-07-29T17:00:39.907+08:00,305,0.610000,0,1002,2,1002,4,2.000000,2.000000,2.000000,4.000000
163739,2026-07-29T17:00:39.910+08:00,306,0.612000,0,997,2,999,4,-3.000000,2.000000,-1.000000,4.000000
163740,2026-07-29T17:00:39.910+08:00,307,0.614000,0,995,2,998,4,-5.000000,2.000000,-2.000000,4.000000
163741,2026-07-29T17:00:39.927+08:00,308,0.616000,0,999,2,1000,4,-1.000000,2.000000,0.000000,4.000000
163742,2026-07-29T17:00:39.927+08:00,309,0.618000,0,1003,2,1001,4,3.000000,2.000000,1.000000,4.000000
163743,2026-07-29T17:00:39.927+08:00,310,0.620000,0,1002,2,999,4,2.000000,2.000000,-1.000000,4.000000
163744,2026-07-29T17:00:39.927+08:00,311,0.622000,0,998,2,997,4,-2.000000,2.000000,-3.000000,4.000000
163745,2026-07-29T17:00:39.927+08:00,312,0.624000,0,996,2,999,4,-4.000000,2.000000,-1.000000,4.000000
163746,2026-07-29T17:00:39.927+08:00,313,0.626000,0,998,2,1001,4,-2.000000,2.000000,1.000000,4.000000
163747,2026-07-29T17:00:39.927+08:00,314,0.628000,0,1001,2,1001,4,1.000000,2.000000,1.000000,4.000000
163748,2026-07-29T17:00:39.927+08:00,315,0.630000,0,1002,2,999,4,2.000000,2.000000,-1.000000,4.000000
163749,2026-07-29T17:00:39.935+08:00,316,0.632000,0,1000,2,998,4,0.000000,2.000000,-2.000000,4.000000
163750,2026-07-29T17:00:39.935+08:00,317,0.634000,0,997,2,1001,4,-3.000000,2.000000,1.000000,4.000000
163751,2026-07-29T17:00:39.935+08:00,318,0.636000,0,998,2,1001,4,-2.000000,2.000000,1.000000,4.000000
163752,2026-07-29T17:00:39.942+08:00,319,0.638000,0,1001,2,997,4,1.000000,2.000000,-3.000000,4.000000
163753,2026-07-29T17:00:39.942+08:00,320,0.640000,0,1002,2,995,4,2.000000,2.000000,-5.000000,4.000000
163754,2026-07-29T17:00:39.942+08:00,321,0.642000,0,1000,2,999,4,0.000000,2.000000,-1.000000,4.000000
163755,2026-07-29T17:00:39.942+08:00,322,0.644000,0,998,2,1004,4,-2.000000,2.000000,4.000000,4.000000
163756,2026-07-29T17:00:39.975+08:00,323,0.646000,0,996,2,1003,4,-4.000000,2.000000,3.000000,4.000000
163757,2026-07-29T17:00:39.975+08:00,324,0.648000,0,998,2,998,4,-2.000000,2.000000,-2.000000,4.000000
163758,2026-07-29T17:00:39.975+08:00,325,0.650000,0,1001,2,995,4,1.000000,2.000000,-5.000000,4.000000
163759,2026-07-29T17:00:39.975+08:00,326,0.652000,0,1002,2,998,2,2.000000,2.000000,-2.000000,2.000000
163760,2026-07-29T17:00:39.975+08:00,327,0.654000,0,1001,2,1001,2,1.000000,2.000000,1.000000,2.000000
163761,2026-07-29T17:00:39.975+08:00,328,0.656000,0,1001,2,1002,2,1.000000,2.000000,2.000000,2.000000
163762,2026-07-29T17:00:39.975+08:00,329,0.658000,0,1000,2,1000,2,0.000000,2.000000,0.000000,2.000000
163763,2026-07-29T17:00:39.975+08:00,330,0.660000,0,998,2,998,2,-2.000000,2.000000,-2.000000,2.000000
163764,2026-07-29T17:00:39.975+08:00,331,0.662000,0,996,2,1000,2,-4.000000,2.000000,0.000000,2.000000
163765,2026-07-29T17:00:39.975+08:00,332,0.664000,0,998,2,1001,2,-2.000000,2.000000,1.000000,2.000000
163766,2026-07-29T17:00:39.975+08:00,333,0.666000,0,1001,2,1000,2,1.000000,2.000000,0.000000,2.000000
163767,2026-07-29T17:00:39.975+08:00,334,0.668000,0,1003,2,997,2,3.000000,2.000000,-3.000000,2.000000
163768,2026-07-29T17:00:39.975+08:00,335,0.670000,0,1000,2,996,2,0.000000,2.000000,-4.000000,2.000000
163769,2026-07-29T17:00:39.975+08:00,336,0.672000,0,998,2,1000,2,-2.000000,2.000000,0.000000,2.000000
163770,2026-07-29T17:00:39.975+08:00,337,0.674000,0,998,2,1004,2,-2.000000,2.000000,4.000000,2.000000
163771,2026-07-29T17:00:39.980+08:00,338,0.676000,0,1000,2,1003,2,0.000000,2.000000,3.000000,2.000000
163772,2026-07-29T17:00:39.980+08:00,339,0.678000,0,1001,2,998,2,1.000000,2.000000,-2.000000,2.000000
163773,2026-07-29T17:00:39.980+08:00,340,0.680000,0,1001,2,994,2,1.000000,2.000000,-6.000000,2.000000
163774,2026-07-29T17:00:39.983+08:00,341,0.682000,0,999,2,996,2,-1.000000,2.000000,-4.000000,2.000000
163775,2026-07-29T17:00:39.983+08:00,342,0.684000,0,998,2,1001,2,-2.000000,2.000000,1.000000,2.000000
163776,2026-07-29T17:00:39.983+08:00,343,0.686000,0,998,2,1004,2,-2.000000,2.000000,4.000000,2.000000
163777,2026-07-29T17:00:39.986+08:00,344,0.688000,0,999,2,1002,2,-1.000000,2.000000,2.000000,2.000000
163778,2026-07-29T17:00:39.986+08:00,345,0.690000,0,1000,2,999,2,0.000000,2.000000,-1.000000,2.000000
163779,2026-07-29T17:00:40.000+08:00,346,0.692000,0,1001,2,997,2,1.000000,2.000000,-3.000000,2.000000
163780,2026-07-29T17:00:40.000+08:00,347,0.694000,0,1001,2,998,2,1.000000,2.000000,-2.000000,2.000000
163781,2026-07-29T17:00:40.000+08:00,348,0.696000,0,1000,2,999,2,0.000000,2.000000,-1.000000,2.000000
163782,2026-07-29T17:00:40.000+08:00,349,0.698000,0,999,2,1000,2,-1.000000,2.000000,0.000000,2.000000
163783,2026-07-29T17:00:40.000+08:00,350,0.700000,0,999,2,999,2,-1.000000,2.000000,-1.000000,2.000000
163784,2026-07-29T17:00:40.000+08:00,351,0.702000,0,1000,2,1000,2,0.000000,2.000000,0.000000,2.000000
163785,2026-07-29T17:00:40.000+08:00,352,0.704000,0,999,2,1002,2,-1.000000,2.000000,2.000000,2.000000
163786,2026-07-29T17:00:40.011+08:00,353,0.706000,0,998,2,1001,2,-2.000000,2.000000,1.000000,2.000000
163787,2026-07-29T17:00:40.011+08:00,354,0.708000,0,998,2,998,2,-2.000000,2.000000,-2.000000,2.000000
163788,2026-07-29T17:00:40.011+08:00,355,0.710000,0,1000,2,997,2,0.000000,2.000000,-3.000000,2.000000
163789,2026-07-29T17:00:40.052+08:00,356,0.712000,0,1003,2,999,2,3.000000,2.000000,-1.000000,2.000000
163790,2026-07-29T17:00:40.052+08:00,357,0.714000,0,1002,2,1001,2,2.000000,2.000000,1.000000,2.000000
163791,2026-07-29T17:00:40.052+08:00,358,0.716000,0,999,2,1001,2,-1.000000,2.000000,1.000000,2.000000
163792,2026-07-29T17:00:40.052+08:00,359,0.718000,0,997,2,1001,2,-3.000000,2.000000,1.000000,2.000000
163793,2026-07-29T17:00:40.052+08:00,360,0.720000,0,999,2,999,2,-1.000000,2.000000,-1.000000,2.000000
163794,2026-07-29T17:00:40.052+08:00,361,0.722000,0,1000,2,998,2,0.000000,2.000000,-2.000000,2.000000
163795,2026-07-29T17:00:40.052+08:00,362,0.724000,0,999,2,998,2,-1.000000,2.000000,-2.000000,2.000000
163796,2026-07-29T17:00:40.052+08:00,363,0.726000,0,997,2,1000,2,-3.000000,2.000000,0.000000,2.000000
163797,2026-07-29T17:00:40.052+08:00,364,0.728000,0,998,2,1001,2,-2.000000,2.000000,1.000000,2.000000
163798,2026-07-29T17:00:40.052+08:00,365,0.730000,0,1002,2,1000,2,2.000000,2.000000,0.000000,2.000000
163799,2026-07-29T17:00:40.052+08:00,366,0.732000,0,1004,2,998,2,4.000000,2.000000,-2.000000,2.000000
163800,2026-07-29T17:00:40.052+08:00,367,0.734000,0,1000,2,999,2,0.000000,2.000000,-1.000000,2.000000
163801,2026-07-29T17:00:40.053+08:00,368,0.736000,0,994,2,1000,2,-6.000000,2.000000,0.000000,2.000000
163802,2026-07-29T17:00:40.053+08:00,369,0.738000,0,996,2,1002,2,-4.000000,2.000000,2.000000,2.000000
163803,2026-07-29T17:00:40.053+08:00,370,0.740000,0,1003,2,1001,2,3.000000,2.000000,1.000000,2.000000
163804,2026-07-29T17:00:40.053+08:00,371,0.742000,0,1005,2,998,2,5.000000,2.000000,-2.000000,2.000000
163805,2026-07-29T17:00:40.053+08:00,372,0.744000,0,999,2,996,2,-1.000000,2.000000,-4.000000,2.000000
163806,2026-07-29T17:00:40.053+08:00,373,0.746000,0,994,2,997,2,-6.000000,2.000000,-3.000000,2.000000
163807,2026-07-29T17:00:40.053+08:00,374,0.748000,0,997,2,1002,2,-3.000000,2.000000,2.000000,2.000000
163808,2026-07-29T17:00:40.053+08:00,375,0.750000,0,1003,2,1005,2,3.000000,2.000000,5.000000,2.000000
163809,2026-07-29T17:00:40.053+08:00,376,0.752000,0,1003,2,1002,2,3.000000,2.000000,2.000000,2.000000
163810,2026-07-29T17:00:40.055+08:00,377,0.754000,0,998,2,996,2,-2.000000,2.000000,-4.000000,2.000000
163811,2026-07-29T17:00:40.055+08:00,378,0.756000,0,997,2,993,2,-3.000000,2.000000,-7.000000,2.000000
163812,2026-07-29T17:00:40.055+08:00,379,0.758000,0,1001,2,997,2,1.000000,2.000000,-3.000000,2.000000
163813,2026-07-29T17:00:40.059+08:00,380,0.760000,0,1004,2,1003,2,4.000000,2.000000,3.000000,2.000000
163814,2026-07-29T17:00:40.059+08:00,381,0.762000,0,1000,2,1004,2,0.000000,2.000000,4.000000,2.000000
163815,2026-07-29T17:00:40.059+08:00,382,0.764000,0,994,2,1001,2,-6.000000,2.000000,1.000000,2.000000
163816,2026-07-29T17:00:40.077+08:00,383,0.766000,0,994,2,998,2,-6.000000,2.000000,-2.000000,2.000000
163817,2026-07-29T17:00:40.077+08:00,384,0.768000,0,1000,2,997,2,0.000000,2.000000,-3.000000,2.000000
163818,2026-07-29T17:00:40.077+08:00,385,0.770000,0,1005,2,998,2,5.000000,2.000000,-2.000000,2.000000
163819,2026-07-29T17:00:40.077+08:00,386,0.772000,0,1004,2,1000,2,4.000000,2.000000,0.000000,2.000000
163820,2026-07-29T17:00:40.077+08:00,387,0.774000,0,998,2,1001,2,-2.000000,2.000000,1.000000,2.000000
163821,2026-07-29T17:00:40.077+08:00,388,0.776000,0,995,2,1001,2,-5.000000,2.000000,1.000000,2.000000
163822,2026-07-29T17:00:40.078+08:00,389,0.778000,0,998,2,1000,2,-2.000000,2.000000,0.000000,2.000000
163823,2026-07-29T17:00:40.085+08:00,390,0.780000,0,1001,2,999,2,1.000000,2.000000,-1.000000,2.000000
163824,2026-07-29T17:00:40.085+08:00,391,0.782000,0,1001,2,999,2,1.000000,2.000000,-1.000000,2.000000
163825,2026-07-29T17:00:40.085+08:00,392,0.784000,0,999,2,1000,2,-1.000000,2.000000,0.000000,2.000000
163826,2026-07-29T17:00:40.108+08:00,393,0.786000,0,998,2,1001,2,-2.000000,2.000000,1.000000,2.000000
163827,2026-07-29T17:00:40.108+08:00,394,0.788000,0,999,2,1000,2,-1.000000,2.000000,0.000000,2.000000
163828,2026-07-29T17:00:40.108+08:00,395,0.790000,0,1001,2,996,2,1.000000,2.000000,-4.000000,2.000000
163829,2026-07-29T17:00:40.108+08:00,396,0.792000,0,1000,2,997,2,0.000000,2.000000,-3.000000,2.000000
163830,2026-07-29T17:00:40.108+08:00,397,0.794000,0,999,2,1002,2,-1.000000,2.000000,2.000000,2.000000
163831,2026-07-29T17:00:40.108+08:00,398,0.796000,0,999,2,1006,2,-1.000000,2.000000,6.000000,2.000000
163832,2026-07-29T17:00:40.108+08:00,399,0.798000,0,1000,2,1002,2,0.000000,2.000000,2.000000,2.000000
163833,2026-07-29T17:00:40.108+08:00,400,0.800000,0,1000,2,994,2,0.000000,2.000000,-6.000000,2.000000
163834,2026-07-29T17:00:40.108+08:00,401,0.802000,0,999,2,992,2,-1.000000,2.000000,-8.000000,2.000000
163835,2026-07-29T17:00:40.108+08:00,402,0.804000,0,998,2,1000,2,-2.000000,2.000000,0.000000,2.000000
163836,2026-07-29T17:00:40.108+08:00,403,0.806000,0,999,2,1006,2,-1.000000,2.000000,6.000000,2.000000
163837,2026-07-29T17:00:40.108+08:00,404,0.808000,0,1000,2,1004,2,0.000000,2.000000,4.000000,2.000000
163838,2026-07-29T17:00:40.108+08:00,405,0.810000,0,1000,2,998,2,0.000000,2.000000,-2.000000,2.000000
163839,2026-07-29T17:00:40.126+08:00,406,0.812000,0,999,2,996,2,-1.000000,2.000000,-4.000000,2.000000
163840,2026-07-29T17:00:40.126+08:00,407,0.814000,0,999,2,998,2,-1.000000,2.000000,-2.000000,2.000000
163841,2026-07-29T17:00:40.126+08:00,408,0.816000,0,1000,2,1000,2,0.000000,2.000000,0.000000,2.000000
163842,2026-07-29T17:00:40.126+08:00,409,0.818000,0,1001,2,1000,2,1.000000,2.000000,0.000000,2.000000
163843,2026-07-29T17:00:40.126+08:00,410,0.820000,0,1000,2,999,2,0.000000,2.000000,-1.000000,2.000000
163844,2026-07-29T17:00:40.126+08:00,411,0.822000,0,998,2,999,2,-2.000000,2.000000,-1.000000,2.000000
163845,2026-07-29T17:00:40.126+08:00,412,0.824000,0,998,2,1000,2,-2.000000,2.000000,0.000000,2.000000
163846,2026-07-29T17:00:40.129+08:00,413,0.826000,0,999,2,1001,2,-1.000000,2.000000,1.000000,2.000000
163847,2026-07-29T17:00:40.129+08:00,414,0.828000,0,1000,2,1000,2,0.000000,2.000000,0.000000,2.000000
163848,2026-07-29T17:00:40.129+08:00,415,0.830000,0,999,2,999,2,-1.000000,2.000000,-1.000000,2.000000
163849,2026-07-29T17:00:40.132+08:00,416,0.832000,0,999,2,998,2,-1.000000,2.000000,-2.000000,2.000000
163850,2026-07-29T17:00:40.132+08:00,417,0.834000,0,1001,2,998,2,1.000000,2.000000,-2.000000,2.000000
163851,2026-07-29T17:00:40.132+08:00,418,0.836000,0,1002,2,999,2,2.000000,2.000000,-1.000000,2.000000
163852,2026-07-29T17:00:40.134+08:00,419,0.838000,0,1001,2,1001,2,1.000000,2.000000,1.000000,2.000000
163853,2026-07-29T17:00:40.150+08:00,420,0.840000,0,997,2,1001,2,-3.000000,2.000000,1.000000,2.000000
163854,2026-07-29T17:00:40.150+08:00,421,0.842000,0,996,2,1000,2,-4.000000,2.000000,0.000000,2.000000
163855,2026-07-29T17:00:40.150+08:00,422,0.844000,0,998,2,999,2,-2.000000,2.000000,-1.000000,2.000000
163856,2026-07-29T17:00:40.150+08:00,423,0.846000,0,1002,2,998,2,2.000000,2.000000,-2.000000,2.000000
163857,2026-07-29T17:00:40.150+08:00,424,0.848000,0,1003,2,999,2,3.000000,2.000000,-1.000000,2.000000
163858,2026-07-29T17:00:40.150+08:00,425,0.850000,0,1000,2,1000,2,0.000000,2.000000,0.000000,2.000000
163859,2026-07-29T17:00:40.155+08:00,426,0.852000,0,997,2,1000,2,-3.000000,2.000000,0.000000,2.000000
163860,2026-07-29T17:00:40.155+08:00,427,0.854000,0,998,2,1000,2,-2.000000,2.000000,0.000000,2.000000
163861,2026-07-29T17:00:40.161+08:00,428,0.856000,0,1001,2,1000,2,1.000000,2.000000,0.000000,2.000000
163862,2026-07-29T17:00:40.161+08:00,429,0.858000,0,1002,2,1000,2,2.000000,2.000000,0.000000,2.000000
163863,2026-07-29T17:00:40.161+08:00,430,0.860000,0,1000,2,999,2,0.000000,2.000000,-1.000000,2.000000
163864,2026-07-29T17:00:40.161+08:00,431,0.862000,0,998,2,998,2,-2.000000,2.000000,-2.000000,2.000000
163865,2026-07-29T17:00:40.169+08:00,432,0.864000,0,997,2,998,2,-3.000000,2.000000,-2.000000,2.000000
163866,2026-07-29T17:00:40.169+08:00,433,0.866000,0,999,2,999,2,-1.000000,2.000000,-1.000000,2.000000
163867,2026-07-29T17:00:40.169+08:00,434,0.868000,0,1000,2,1001,2,0.000000,2.000000,1.000000,2.000000
163868,2026-07-29T17:00:40.185+08:00,435,0.870000,0,1001,2,1002,2,1.000000,2.000000,2.000000,2.000000
163869,2026-07-29T17:00:40.185+08:00,436,0.872000,0,1000,2,1001,2,0.000000,2.000000,1.000000,2.000000
163870,2026-07-29T17:00:40.185+08:00,437,0.874000,0,999,2,999,2,-1.000000,2.000000,-1.000000,2.000000
163871,2026-07-29T17:00:40.185+08:00,438,0.876000,0,999,2,997,2,-1.000000,2.000000,-3.000000,2.000000
163872,2026-07-29T17:00:40.185+08:00,439,0.878000,0,1000,2,998,2,0.000000,2.000000,-2.000000,2.000000
163873,2026-07-29T17:00:40.185+08:00,440,0.880000,0,1000,2,1000,2,0.000000,2.000000,0.000000,2.000000
163874,2026-07-29T17:00:40.185+08:00,441,0.882000,0,1000,2,1002,2,0.000000,2.000000,2.000000,2.000000
163875,2026-07-29T17:00:40.185+08:00,442,0.884000,0,999,2,1001,2,-1.000000,2.000000,1.000000,2.000000
163876,2026-07-29T17:00:40.203+08:00,443,0.886000,0,998,2,999,2,-2.000000,2.000000,-1.000000,2.000000
163877,2026-07-29T17:00:40.203+08:00,444,0.888000,0,998,2,998,2,-2.000000,2.000000,-2.000000,2.000000
163878,2026-07-29T17:00:40.203+08:00,445,0.890000,0,999,2,998,2,-1.000000,2.000000,-2.000000,2.000000
163879,2026-07-29T17:00:40.203+08:00,446,0.892000,0,1001,2,1000,2,1.000000,2.000000,0.000000,2.000000
163880,2026-07-29T17:00:40.203+08:00,447,0.894000,0,1001,2,1001,2,1.000000,2.000000,1.000000,2.000000
163881,2026-07-29T17:00:40.203+08:00,448,0.896000,0,1000,2,1000,2,0.000000,2.000000,0.000000,2.000000
163882,2026-07-29T17:00:40.203+08:00,449,0.898000,0,999,2,998,2,-1.000000,2.000000,-2.000000,2.000000
163883,2026-07-29T17:00:40.203+08:00,450,0.900000,0,999,2,999,2,-1.000000,2.000000,-1.000000,2.000000
163884,2026-07-29T17:00:40.204+08:00,451,0.902000,0,1000,2,1000,2,0.000000,2.000000,0.000000,2.000000
163885,2026-07-29T17:00:40.204+08:00,452,0.904000,0,999,2,1001,2,-1.000000,2.000000,1.000000,2.000000
163886,2026-07-29T17:00:40.204+08:00,453,0.906000,0,997,2,1000,2,-3.000000,2.000000,0.000000,2.000000
163887,2026-07-29T17:00:40.207+08:00,454,0.908000,0,998,2,999,2,-2.000000,2.000000,-1.000000,2.000000
163888,2026-07-29T17:00:40.207+08:00,455,0.910000,0,1001,2,998,2,1.000000,2.000000,-2.000000,2.000000
163889,2026-07-29T17:00:40.207+08:00,456,0.912000,0,1002,2,998,2,2.000000,2.000000,-2.000000,2.000000
163890,2026-07-29T17:00:40.210+08:00,457,0.914000,0,1001,2,999,2,1.000000,2.000000,-1.000000,2.000000
163891,2026-07-29T17:00:40.225+08:00,458,0.916000,0,998,2,1001,2,-2.000000,2.000000,1.000000,2.000000
163892,2026-07-29T17:00:40.225+08:00,459,0.918000,0,998,2,1002,2,-2.000000,2.000000,2.000000,2.000000
163893,2026-07-29T17:00:40.225+08:00,460,0.920000,0,1000,2,1001,2,0.000000,2.000000,1.000000,2.000000
163894,2026-07-29T17:00:40.225+08:00,461,0.922000,0,1000,2,998,2,0.000000,2.000000,-2.000000,2.000000
163895,2026-07-29T17:00:40.225+08:00,462,0.924000,0,998,2,997,2,-2.000000,2.000000,-3.000000,2.000000
163896,2026-07-29T17:00:40.225+08:00,463,0.926000,0,997,2,997,2,-3.000000,2.000000,-3.000000,2.000000
163897,2026-07-29T17:00:40.231+08:00,464,0.928000,0,1000,2,1000,2,0.000000,2.000000,0.000000,2.000000
163898,2026-07-29T17:00:40.231+08:00,465,0.930000,0,1003,2,1003,2,3.000000,2.000000,3.000000,2.000000
163899,2026-07-29T17:00:40.240+08:00,466,0.932000,0,1002,2,1002,2,2.000000,2.000000,2.000000,2.000000
163900,2026-07-29T17:00:40.240+08:00,467,0.934000,0,997,2,998,2,-3.000000,2.000000,-2.000000,2.000000
163901,2026-07-29T17:00:40.240+08:00,468,0.936000,0,995,2,996,2,-5.000000,2.000000,-4.000000,2.000000
163902,2026-07-29T17:00:40.240+08:00,469,0.938000,0,999,2,999,2,-1.000000,2.000000,-1.000000,2.000000
163903,2026-07-29T17:00:40.240+08:00,470,0.940000,0,1003,2,1002,2,3.000000,2.000000,2.000000,2.000000
163904,2026-07-29T17:00:40.240+08:00,471,0.942000,0,1003,2,1000,2,3.000000,2.000000,0.000000,2.000000
163905,2026-07-29T17:00:40.240+08:00,472,0.944000,0,999,2,998,2,-1.000000,2.000000,-2.000000,2.000000
163906,2026-07-29T17:00:40.285+08:00,473,0.946000,0,997,2,998,2,-3.000000,2.000000,-2.000000,2.000000
163907,2026-07-29T17:00:40.285+08:00,474,0.948000,0,997,2,1000,2,-3.000000,2.000000,0.000000,2.000000
163908,2026-07-29T17:00:40.285+08:00,475,0.950000,0,998,2,1002,2,-2.000000,2.000000,2.000000,2.000000
163909,2026-07-29T17:00:40.285+08:00,476,0.952000,0,1000,2,1001,2,0.000000,2.000000,1.000000,2.000000
163910,2026-07-29T17:00:40.285+08:00,477,0.954000,0,1002,2,999,2,2.000000,2.000000,-1.000000,2.000000
163911,2026-07-29T17:00:40.285+08:00,478,0.956000,0,1003,2,998,2,3.000000,2.000000,-2.000000,2.000000
163912,2026-07-29T17:00:40.285+08:00,479,0.958000,0,1002,2,998,2,2.000000,2.000000,-2.000000,2.000000
163913,2026-07-29T17:00:40.285+08:00,480,0.960000,0,998,2,999,2,-2.000000,2.000000,-1.000000,2.000000
163914,2026-07-29T17:00:40.285+08:00,481,0.962000,0,995,2,1001,2,-5.000000,2.000000,1.000000,2.000000
163915,2026-07-29T17:00:40.285+08:00,482,0.964000,0,996,2,1002,2,-4.000000,2.000000,2.000000,2.000000
163916,2026-07-29T17:00:40.285+08:00,483,0.966000,0,1000,2,1002,2,0.000000,2.000000,2.000000,2.000000
163917,2026-07-29T17:00:40.285+08:00,484,0.968000,0,1004,2,999,2,4.000000,2.000000,-1.000000,2.000000
163918,2026-07-29T17:00:40.285+08:00,485,0.970000,0,1003,2,995,2,3.000000,2.000000,-5.000000,2.000000
163919,2026-07-29T17:00:40.285+08:00,486,0.972000,0,999,2,995,2,-1.000000,2.000000,-5.000000,2.000000
163920,2026-07-29T17:00:40.285+08:00,487,0.974000,0,997,2,999,2,-3.000000,2.000000,-1.000000,2.000000
163921,2026-07-29T17:00:40.285+08:00,488,0.976000,0,998,2,1004,2,-2.000000,2.000000,4.000000,2.000000
163922,2026-07-29T17:00:40.285+08:00,489,0.978000,0,1000,2,1004,2,0.000000,2.000000,4.000000,2.000000
163923,2026-07-29T17:00:40.285+08:00,490,0.980000,0,1001,2,1000,2,1.000000,2.000000,0.000000,2.000000
163924,2026-07-29T17:00:40.285+08:00,491,0.982000,0,1000,2,996,2,0.000000,2.000000,-4.000000,2.000000
163925,2026-07-29T17:00:40.285+08:00,492,0.984000,0,999,2,996,2,-1.000000,2.000000,-4.000000,2.000000
163926,2026-07-29T17:00:40.285+08:00,493,0.986000,0,999,2,999,2,-1.000000,2.000000,-1.000000,2.000000
163927,2026-07-29T17:00:40.285+08:00,494,0.988000,0,999,2,1001,2,-1.000000,2.000000,1.000000,2.000000
163928,2026-07-29T17:00:40.285+08:00,495,0.990000,0,998,2,1002,2,-2.000000,2.000000,2.000000,2.000000
163929,2026-07-29T17:00:40.294+08:00,496,0.992000,0,999,2,1002,2,-1.000000,2.000000,2.000000,2.000000
163930,2026-07-29T17:00:40.294+08:00,497,0.994000,0,1001,2,1000,2,1.000000,2.000000,0.000000,2.000000
163931,2026-07-29T17:00:40.294+08:00,498,0.996000,0,1002,2,998,2,2.000000,2.000000,-2.000000,2.000000
163932,2026-07-29T17:00:40.304+08:00,499,0.998000,0,1000,2,996,2,0.000000,2.000000,-4.000000,2.000000
163933,2026-07-29T17:00:40.304+08:00,500,1.000000,0,997,2,997,2,-3.000000,2.000000,-3.000000,2.000000
163934,2026-07-29T17:00:40.304+08:00,501,1.002000,0,996,2,1001,2,-4.000000,2.000000,1.000000,2.000000
163935,2026-07-29T17:00:40.304+08:00,502,1.004000,0,999,2,1003,2,-1.000000,2.000000,3.000000,2.000000
163936,2026-07-29T17:00:40.315+08:00,503,1.006000,0,1002,2,1001,2,2.000000,2.000000,1.000000,2.000000
163937,2026-07-29T17:00:40.315+08:00,504,1.008000,0,1002,2,998,2,2.000000,2.000000,-2.000000,2.000000
163938,2026-07-29T17:00:40.315+08:00,505,1.010000,0,999,2,997,2,-1.000000,2.000000,-3.000000,2.000000
163939,2026-07-29T17:00:40.315+08:00,506,1.012000,0,996,2,1000,2,-4.000000,2.000000,0.000000,2.000000
163940,2026-07-29T17:00:40.315+08:00,507,1.014000,0,997,2,1001,2,-3.000000,2.000000,1.000000,2.000000
163941,2026-07-29T17:00:40.315+08:00,508,1.016000,0,1002,2,999,2,2.000000,2.000000,-1.000000,2.000000
163942,2026-07-29T17:00:40.315+08:00,509,1.018000,0,1005,2,998,2,5.000000,2.000000,-2.000000,2.000000
163943,2026-07-29T17:00:40.354+08:00,510,1.020000,0,1002,2,999,2,2.000000,2.000000,-1.000000,2.000000
163944,2026-07-29T17:00:40.354+08:00,511,1.022000,0,996,2,1001,2,-4.000000,2.000000,1.000000,2.000000
163945,2026-07-29T17:00:40.354+08:00,512,1.024000,0,994,2,1001,2,-6.000000,2.000000,1.000000,2.000000
163946,2026-07-29T17:00:40.354+08:00,513,1.026000,0,997,2,998,2,-3.000000,2.000000,-2.000000,2.000000
163947,2026-07-29T17:00:40.354+08:00,514,1.028000,0,1002,2,998,2,2.000000,2.000000,-2.000000,2.000000
163948,2026-07-29T17:00:40.354+08:00,515,1.030000,0,1003,2,1000,2,3.000000,2.000000,0.000000,2.000000
163949,2026-07-29T17:00:40.354+08:00,516,1.032000,0,1000,2,1002,2,0.000000,2.000000,2.000000,2.000000
163950,2026-07-29T17:00:40.354+08:00,517,1.034000,0,997,2,1000,2,-3.000000,2.000000,0.000000,2.000000
163951,2026-07-29T17:00:40.354+08:00,518,1.036000,0,999,2,996,2,-1.000000,2.000000,-4.000000,2.000000
163952,2026-07-29T17:00:40.354+08:00,519,1.038000,0,1002,2,996,2,2.000000,2.000000,-4.000000,2.000000
163953,2026-07-29T17:00:40.354+08:00,520,1.040000,0,1001,2,1002,2,1.000000,2.000000,2.000000,2.000000
163954,2026-07-29T17:00:40.354+08:00,521,1.042000,0,996,2,1006,2,-4.000000,2.000000,6.000000,2.000000
163955,2026-07-29T17:00:40.354+08:00,522,1.044000,0,994,2,1002,2,-6.000000,2.000000,2.000000,2.000000
163956,2026-07-29T17:00:40.354+08:00,523,1.046000,0,999,2,995,2,-1.000000,2.000000,-5.000000,2.000000
163957,2026-07-29T17:00:40.354+08:00,524,1.048000,0,1004,2,993,2,4.000000,2.000000,-7.000000,2.000000
163958,2026-07-29T17:00:40.354+08:00,525,1.050000,0,1004,2,999,2,4.000000,2.000000,-1.000000,2.000000
163959,2026-07-29T17:00:40.354+08:00,526,1.052000,0,999,2,1005,2,-1.000000,2.000000,5.000000,2.000000
163960,2026-07-29T17:00:40.354+08:00,527,1.054000,0,995,2,1004,2,-5.000000,2.000000,4.000000,2.000000
163961,2026-07-29T17:00:40.354+08:00,528,1.056000,0,997,2,999,2,-3.000000,2.000000,-1.000000,2.000000
163962,2026-07-29T17:00:40.357+08:00,529,1.058000,0,1002,2,995,2,2.000000,2.000000,-5.000000,2.000000
163963,2026-07-29T17:00:40.357+08:00,530,1.060000,0,1003,2,998,2,3.000000,2.000000,-2.000000,2.000000
163964,2026-07-29T17:00:40.357+08:00,531,1.062000,0,1000,2,1001,2,0.000000,2.000000,1.000000,2.000000
163965,2026-07-29T17:00:40.358+08:00,532,1.064000,0,996,2,1001,2,-4.000000,2.000000,1.000000,2.000000
163966,2026-07-29T17:00:40.381+08:00,533,1.066000,0,997,2,998,2,-3.000000,2.000000,-2.000000,2.000000
163967,2026-07-29T17:00:40.381+08:00,534,1.068000,0,1000,2,999,2,0.000000,2.000000,-1.000000,2.000000
163968,2026-07-29T17:00:40.381+08:00,535,1.070000,0,1002,2,1002,2,2.000000,2.000000,2.000000,2.000000
163969,2026-07-29T17:00:40.408+08:00,536,1.072000,0,1001,2,1003,2,1.000000,2.000000,3.000000,2.000000
163970,2026-07-29T17:00:40.408+08:00,537,1.074000,0,999,2,998,2,-1.000000,2.000000,-2.000000,2.000000
163971,2026-07-29T17:00:40.408+08:00,538,1.076000,0,999,2,995,2,-1.000000,2.000000,-5.000000,2.000000
163972,2026-07-29T17:00:40.408+08:00,539,1.078000,0,999,2,997,2,-1.000000,2.000000,-3.000000,2.000000
163973,2026-07-29T17:00:40.408+08:00,540,1.080000,0,1000,2,1002,2,0.000000,2.000000,2.000000,2.000000
163974,2026-07-29T17:00:40.408+08:00,541,1.082000,0,1000,2,1004,2,0.000000,2.000000,4.000000,2.000000
163975,2026-07-29T17:00:40.408+08:00,542,1.084000,0,1000,2,1000,2,0.000000,2.000000,0.000000,2.000000
163976,2026-07-29T17:00:40.408+08:00,543,1.086000,0,999,2,996,2,-1.000000,2.000000,-4.000000,2.000000
163977,2026-07-29T17:00:40.408+08:00,544,1.088000,0,998,2,997,2,-2.000000,2.000000,-3.000000,2.000000
163978,2026-07-29T17:00:40.408+08:00,545,1.090000,0,999,2,1001,2,-1.000000,2.000000,1.000000,2.000000
163979,2026-07-29T17:00:40.427+08:00,546,1.092000,0,1000,2,1002,2,0.000000,2.000000,2.000000,2.000000
163980,2026-07-29T17:00:40.427+08:00,547,1.094000,0,1001,2,999,2,1.000000,2.000000,-1.000000,2.000000
163981,2026-07-29T17:00:40.427+08:00,548,1.096000,0,1001,2,997,2,1.000000,2.000000,-3.000000,2.000000
163982,2026-07-29T17:00:40.427+08:00,549,1.098000,0,1001,2,999,2,1.000000,2.000000,-1.000000,2.000000
163983,2026-07-29T17:00:40.427+08:00,550,1.100000,0,999,2,1003,2,-1.000000,2.000000,3.000000,2.000000
163984,2026-07-29T17:00:40.427+08:00,551,1.102000,0,998,2,1001,2,-2.000000,2.000000,1.000000,2.000000
163985,2026-07-29T17:00:40.427+08:00,552,1.104000,0,998,2,997,2,-2.000000,2.000000,-3.000000,2.000000
163986,2026-07-29T17:00:40.427+08:00,553,1.106000,0,999,2,996,2,-1.000000,2.000000,-4.000000,2.000000
163987,2026-07-29T17:00:40.427+08:00,554,1.108000,0,999,2,999,2,-1.000000,2.000000,-1.000000,2.000000
163988,2026-07-29T17:00:40.427+08:00,555,1.110000,0,999,2,1003,2,-1.000000,2.000000,3.000000,2.000000
163989,2026-07-29T17:00:40.427+08:00,556,1.112000,0,1001,2,1002,2,1.000000,2.000000,2.000000,2.000000
163990,2026-07-29T17:00:40.427+08:00,557,1.114000,0,1002,2,999,2,2.000000,2.000000,-1.000000,2.000000
163991,2026-07-29T17:00:40.427+08:00,558,1.116000,0,1001,2,997,2,1.000000,2.000000,-3.000000,2.000000
163992,2026-07-29T17:00:40.427+08:00,559,1.118000,0,999,2,997,2,-1.000000,2.000000,-3.000000,2.000000
163993,2026-07-29T17:00:40.427+08:00,560,1.120000,0,997,2,1000,2,-3.000000,2.000000,0.000000,2.000000
163994,2026-07-29T17:00:40.427+08:00,561,1.122000,0,997,2,1002,2,-3.000000,2.000000,2.000000,2.000000
163995,2026-07-29T17:00:40.427+08:00,562,1.124000,0,1000,2,1002,2,0.000000,2.000000,2.000000,2.000000
163996,2026-07-29T17:00:40.430+08:00,563,1.126000,0,1002,2,999,2,2.000000,2.000000,-1.000000,2.000000
163997,2026-07-29T17:00:40.430+08:00,564,1.128000,0,1001,2,997,2,1.000000,2.000000,-3.000000,2.000000
163998,2026-07-29T17:00:40.430+08:00,565,1.130000,0,999,2,998,2,-1.000000,2.000000,-2.000000,2.000000
163999,2026-07-29T17:00:40.433+08:00,566,1.132000,0,998,2,1001,2,-2.000000,2.000000,1.000000,2.000000
164000,2026-07-29T17:00:40.433+08:00,567,1.134000,0,999,2,1001,2,-1.000000,2.000000,1.000000,2.000000
164001,2026-07-29T17:00:40.433+08:00,568,1.136000,0,1001,2,1000,2,1.000000,2.000000,0.000000,2.000000
164002,2026-07-29T17:00:40.435+08:00,569,1.138000,0,1001,2,999,2,1.000000,2.000000,-1.000000,2.000000
164003,2026-07-29T17:00:40.435+08:00,570,1.140000,0,999,2,999,2,-1.000000,2.000000,-1.000000,2.000000
164004,2026-07-29T17:00:40.460+08:00,571,1.142000,0,997,2,999,2,-3.000000,2.000000,-1.000000,2.000000
164005,2026-07-29T17:00:40.460+08:00,572,1.144000,0,998,2,999,2,-2.000000,2.000000,-1.000000,2.000000
164006,2026-07-29T17:00:40.460+08:00,573,1.146000,0,1000,2,999,2,0.000000,2.000000,-1.000000,2.000000
164007,2026-07-29T17:00:40.460+08:00,574,1.148000,0,1001,2,1001,2,1.000000,2.000000,1.000000,2.000000
164008,2026-07-29T17:00:40.460+08:00,575,1.150000,0,999,2,1001,2,-1.000000,2.000000,1.000000,2.000000
164009,2026-07-29T17:00:40.460+08:00,576,1.152000,0,997,2,1000,2,-3.000000,2.000000,0.000000,2.000000
164010,2026-07-29T17:00:40.460+08:00,577,1.154000,0,999,2,998,2,-1.000000,2.000000,-2.000000,2.000000
164011,2026-07-29T17:00:40.467+08:00,578,1.156000,0,1002,2,997,2,2.000000,2.000000,-3.000000,2.000000
164012,2026-07-29T17:00:40.467+08:00,579,1.158000,0,1003,2,999,2,3.000000,2.000000,-1.000000,2.000000
164013,2026-07-29T17:00:40.467+08:00,580,1.160000,0,999,2,1001,2,-1.000000,2.000000,1.000000,2.000000
164014,2026-07-29T17:00:40.467+08:00,581,1.162000,0,996,2,1001,2,-4.000000,2.000000,1.000000,2.000000
164015,2026-07-29T17:00:40.467+08:00,582,1.164000,0,997,2,1000,2,-3.000000,2.000000,0.000000,2.000000
164016,2026-07-29T17:00:40.467+08:00,583,1.166000,0,1001,2,1000,2,1.000000,2.000000,0.000000,2.000000
164017,2026-07-29T17:00:40.467+08:00,584,1.168000,0,1002,2,999,2,2.000000,2.000000,-1.000000,2.000000
164018,2026-07-29T17:00:40.467+08:00,585,1.170000,0,1000,2,998,2,0.000000,2.000000,-2.000000,2.000000
164019,2026-07-29T17:00:40.486+08:00,586,1.172000,0,998,2,998,2,-2.000000,2.000000,-2.000000,2.000000
164020,2026-07-29T17:00:40.486+08:00,587,1.174000,0,999,2,999,2,-1.000000,2.000000,-1.000000,2.000000
164021,2026-07-29T17:00:40.486+08:00,588,1.176000,0,1001,2,1001,2,1.000000,2.000000,1.000000,2.000000
164022,2026-07-29T17:00:40.486+08:00,589,1.178000,0,1002,2,1001,2,2.000000,2.000000,1.000000,2.000000
164023,2026-07-29T17:00:40.486+08:00,590,1.180000,0,1000,2,999,2,0.000000,2.000000,-1.000000,2.000000
164024,2026-07-29T17:00:40.486+08:00,591,1.182000,0,996,2,998,2,-4.000000,2.000000,-2.000000,2.000000
164025,2026-07-29T17:00:40.486+08:00,592,1.184000,0,996,2,999,2,-4.000000,2.000000,-1.000000,2.000000
164026,2026-07-29T17:00:40.507+08:00,593,1.186000,0,999,2,1000,2,-1.000000,2.000000,0.000000,2.000000
164027,2026-07-29T17:00:40.507+08:00,594,1.188000,0,1002,2,1001,2,2.000000,2.000000,1.000000,2.000000
164028,2026-07-29T17:00:40.507+08:00,595,1.190000,0,1002,2,999,2,2.000000,2.000000,-1.000000,2.000000
164029,2026-07-29T17:00:40.507+08:00,596,1.192000,0,999,2,997,2,-1.000000,2.000000,-3.000000,2.000000
164030,2026-07-29T17:00:40.507+08:00,597,1.194000,0,997,2,999,2,-3.000000,2.000000,-1.000000,2.000000
164031,2026-07-29T17:00:40.507+08:00,598,1.196000,0,999,2,1002,2,-1.000000,2.000000,2.000000,2.000000
164032,2026-07-29T17:00:40.507+08:00,599,1.198000,0,1001,2,1003,2,1.000000,2.000000,3.000000,2.000000
164033,2026-07-29T17:00:40.507+08:00,600,1.200000,0,1001,2,999,2,1.000000,2.000000,-1.000000,2.000000
164034,2026-07-29T17:00:40.507+08:00,601,1.202000,0,999,2,997,2,-1.000000,2.000000,-3.000000,2.000000
164035,2026-07-29T17:00:40.507+08:00,602,1.204000,0,997,2,997,2,-3.000000,2.000000,-3.000000,2.000000
164036,2026-07-29T17:00:40.507+08:00,603,1.206000,0,998,2,999,2,-2.000000,2.000000,-1.000000,2.000000
164037,2026-07-29T17:00:40.507+08:00,604,1.208000,0,1001,2,1001,2,1.000000,2.000000,1.000000,2.000000
164038,2026-07-29T17:00:40.507+08:00,605,1.210000,0,1002,2,1002,2,2.000000,2.000000,2.000000,2.000000
164039,2026-07-29T17:00:40.507+08:00,606,1.212000,0,1000,2,1002,2,0.000000,2.000000,2.000000,2.000000
164040,2026-07-29T17:00:40.508+08:00,607,1.214000,0,998,2,1000,2,-2.000000,2.000000,0.000000,2.000000
164041,2026-07-29T17:00:40.519+08:00,608,1.216000,0,999,2,997,2,-1.000000,2.000000,-3.000000,2.000000
164042,2026-07-29T17:00:40.519+08:00,609,1.218000,0,1001,2,995,2,1.000000,2.000000,-5.000000,2.000000
164043,2026-07-29T17:00:40.519+08:00,610,1.220000,0,1001,2,997,2,1.000000,2.000000,-3.000000,2.000000
164044,2026-07-29T17:00:40.522+08:00,611,1.222000,0,1000,2,1002,2,0.000000,2.000000,2.000000,2.000000
164045,2026-07-29T17:00:40.522+08:00,612,1.224000,0,998,2,1004,2,-2.000000,2.000000,4.000000,2.000000
164046,2026-07-29T17:00:40.522+08:00,613,1.226000,0,998,2,1003,2,-2.000000,2.000000,3.000000,2.000000
164047,2026-07-29T17:00:40.527+08:00,614,1.228000,0,998,2,999,2,-2.000000,2.000000,-1.000000,2.000000
164048,2026-07-29T17:00:40.538+08:00,615,1.230000,0,999,2,995,2,-1.000000,2.000000,-5.000000,2.000000
164049,2026-07-29T17:00:40.538+08:00,616,1.232000,0,1001,2,995,2,1.000000,2.000000,-5.000000,2.000000
164050,2026-07-29T17:00:40.538+08:00,617,1.234000,0,1001,2,999,2,1.000000,2.000000,-1.000000,2.000000
164051,2026-07-29T17:00:40.538+08:00,618,1.236000,0,1001,2,1004,2,1.000000,2.000000,4.000000,2.000000
164052,2026-07-29T17:00:40.538+08:00,619,1.238000,0,999,2,1004,2,-1.000000,2.000000,4.000000,2.000000
164053,2026-07-29T17:00:40.538+08:00,620,1.240000,0,999,2,1000,2,-1.000000,2.000000,0.000000,2.000000
164054,2026-07-29T17:00:40.545+08:00,621,1.242000,0,998,2,996,2,-2.000000,2.000000,-4.000000,2.000000
164055,2026-07-29T17:00:40.545+08:00,622,1.244000,0,998,2,995,2,-2.000000,2.000000,-5.000000,2.000000
164056,2026-07-29T17:00:40.552+08:00,623,1.246000,0,998,2,998,2,-2.000000,2.000000,-2.000000,2.000000
164057,2026-07-29T17:00:40.552+08:00,624,1.248000,0,999,2,1002,2,-1.000000,2.000000,2.000000,2.000000
164058,2026-07-29T17:00:40.552+08:00,625,1.250000,0,1000,2,1003,2,0.000000,2.000000,3.000000,2.000000
164059,2026-07-29T17:00:40.567+08:00,626,1.252000,0,1001,2,1000,2,1.000000,2.000000,0.000000,2.000000
164060,2026-07-29T17:00:40.567+08:00,627,1.254000,0,1001,2,998,2,1.000000,2.000000,-2.000000,2.000000
164061,2026-07-29T17:00:40.567+08:00,628,1.256000,0,1000,2,998,2,0.000000,2.000000,-2.000000,2.000000
164062,2026-07-29T17:00:40.567+08:00,629,1.258000,0,998,2,999,2,-2.000000,2.000000,-1.000000,2.000000
164063,2026-07-29T17:00:40.567+08:00,630,1.260000,0,998,2,1000,2,-2.000000,2.000000,0.000000,2.000000
164064,2026-07-29T17:00:40.567+08:00,631,1.262000,0,999,2,1000,2,-1.000000,2.000000,0.000000,2.000000
164065,2026-07-29T17:00:40.567+08:00,632,1.264000,0,1000,2,1000,2,0.000000,2.000000,0.000000,2.000000
164066,2026-07-29T17:00:40.567+08:00,633,1.266000,0,1001,2,998,2,1.000000,2.000000,-2.000000,2.000000
164067,2026-07-29T17:00:40.567+08:00,634,1.268000,0,1000,2,999,2,0.000000,2.000000,-1.000000,2.000000
164068,2026-07-29T17:00:40.567+08:00,635,1.270000,0,998,2,1000,2,-2.000000,2.000000,0.000000,2.000000
164069,2026-07-29T17:00:40.567+08:00,636,1.272000,0,998,2,1001,2,-2.000000,2.000000,1.000000,2.000000
164070,2026-07-29T17:00:40.587+08:00,637,1.274000,0,1000,2,1000,2,0.000000,2.000000,0.000000,2.000000
164071,2026-07-29T17:00:40.587+08:00,638,1.276000,0,1001,2,998,2,1.000000,2.000000,-2.000000,2.000000
164072,2026-07-29T17:00:40.587+08:00,639,1.278000,0,1001,2,998,2,1.000000,2.000000,-2.000000,2.000000
164073,2026-07-29T17:00:40.587+08:00,640,1.280000,0,999,2,1000,2,-1.000000,2.000000,0.000000,2.000000
164074,2026-07-29T17:00:40.587+08:00,641,1.282000,0,998,2,1001,2,-2.000000,2.000000,1.000000,2.000000
164075,2026-07-29T17:00:40.587+08:00,642,1.284000,0,997,2,999,2,-3.000000,2.000000,-1.000000,2.000000
164076,2026-07-29T17:00:40.587+08:00,643,1.286000,0,999,0,999,2,-1.000000,0.000000,-1.000000,2.000000
164077,2026-07-29T17:00:40.587+08:00,644,1.288000,0,1002,2,1000,2,2.000000,2.000000,0.000000,2.000000
164078,2026-07-29T17:00:40.587+08:00,645,1.290000,0,1001,2,1001,2,1.000000,2.000000,1.000000,2.000000
164079,2026-07-29T17:00:40.594+08:00,646,1.292000,0,998,2,1000,2,-2.000000,2.000000,0.000000,2.000000
164080,2026-07-29T17:00:40.594+08:00,647,1.294000,0,996,2,998,2,-4.000000,2.000000,-2.000000,2.000000
164081,2026-07-29T17:00:40.594+08:00,648,1.296000,0,1000,2,998,2,0.000000,2.000000,-2.000000,2.000000
164082,2026-07-29T17:00:40.598+08:00,649,1.298000,0,1004,2,1000,2,4.000000,2.000000,0.000000,2.000000
164083,2026-07-29T17:00:40.598+08:00,650,1.300000,0,1003,2,1001,2,3.000000,2.000000,1.000000,2.000000
164084,2026-07-29T17:00:40.598+08:00,651,1.302000,0,997,2,1001,2,-3.000000,2.000000,1.000000,2.000000
164085,2026-07-29T17:00:40.599+08:00,652,1.304000,0,994,2,999,2,-6.000000,2.000000,-1.000000,2.000000
164086,2026-07-29T17:00:40.613+08:00,653,1.306000,0,997,2,998,2,-3.000000,2.000000,-2.000000,2.000000
164087,2026-07-29T17:00:40.613+08:00,654,1.308000,0,1002,2,998,2,2.000000,2.000000,-2.000000,2.000000
164088,2026-07-29T17:00:40.613+08:00,655,1.310000,0,1003,2,1000,2,3.000000,2.000000,0.000000,2.000000
164089,2026-07-29T17:00:40.613+08:00,656,1.312000,0,1001,2,1002,2,1.000000,2.000000,2.000000,2.000000
164090,2026-07-29T17:00:40.613+08:00,657,1.314000,0,998,2,1001,2,-2.000000,2.000000,1.000000,2.000000
164091,2026-07-29T17:00:40.613+08:00,658,1.316000,0,998,0,998,2,-2.000000,0.000000,-2.000000,2.000000
164092,2026-07-29T17:00:40.618+08:00,659,1.318000,0,1000,0,997,2,0.000000,0.000000,-3.000000,2.000000
164093,2026-07-29T17:00:40.618+08:00,660,1.320000,0,1001,0,1000,2,1.000000,0.000000,0.000000,2.000000
164094,2026-07-29T17:00:40.625+08:00,661,1.322000,0,1000,0,1002,2,0.000000,0.000000,2.000000,2.000000
164095,2026-07-29T17:00:40.625+08:00,662,1.324000,0,998,0,1001,2,-2.000000,0.000000,1.000000,2.000000
164096,2026-07-29T17:00:40.625+08:00,663,1.326000,0,998,0,997,2,-2.000000,0.000000,-3.000000,2.000000
164097,2026-07-29T17:00:40.630+08:00,664,1.328000,0,998,0,997,2,-2.000000,0.000000,-3.000000,2.000000
164098,2026-07-29T17:00:40.630+08:00,665,1.330000,0,1000,0,1000,2,0.000000,0.000000,0.000000,2.000000
164099,2026-07-29T17:00:40.630+08:00,666,1.332000,0,1002,0,1002,2,2.000000,0.000000,2.000000,2.000000
164100,2026-07-29T17:00:40.630+08:00,667,1.334000,0,1003,0,1001,2,3.000000,0.000000,1.000000,2.000000
164101,2026-07-29T17:00:40.667+08:00,668,1.336000,0,1000,0,999,2,0.000000,0.000000,-1.000000,2.000000
164102,2026-07-29T17:00:40.667+08:00,669,1.338000,0,996,2,998,2,-4.000000,2.000000,-2.000000,2.000000
164103,2026-07-29T17:00:40.667+08:00,670,1.340000,0,996,2,999,2,-4.000000,2.000000,-1.000000,2.000000
164104,2026-07-29T17:00:40.667+08:00,671,1.342000,0,1000,2,1000,2,0.000000,2.000000,0.000000,2.000000
164105,2026-07-29T17:00:40.667+08:00,672,1.344000,0,1003,2,999,2,3.000000,2.000000,-1.000000,2.000000
164106,2026-07-29T17:00:40.667+08:00,673,1.346000,0,1002,2,999,2,2.000000,2.000000,-1.000000,2.000000
164107,2026-07-29T17:00:40.667+08:00,674,1.348000,0,997,2,1000,2,-3.000000,2.000000,0.000000,2.000000
164108,2026-07-29T17:00:40.667+08:00,675,1.350000,0,996,2,1001,2,-4.000000,2.000000,1.000000,2.000000
164109,2026-07-29T17:00:40.667+08:00,676,1.352000,0,999,2,999,2,-1.000000,2.000000,-1.000000,2.000000
164110,2026-07-29T17:00:40.667+08:00,677,1.354000,0,1002,2,998,2,2.000000,2.000000,-2.000000,2.000000
164111,2026-07-29T17:00:40.667+08:00,678,1.356000,0,1002,2,999,2,2.000000,2.000000,-1.000000,2.000000
164112,2026-07-29T17:00:40.667+08:00,679,1.358000,0,1000,2,1000,2,0.000000,2.000000,0.000000,2.000000
164113,2026-07-29T17:00:40.667+08:00,680,1.360000,0,999,2,999,2,-1.000000,2.000000,-1.000000,2.000000
164114,2026-07-29T17:00:40.667+08:00,681,1.362000,0,999,2,999,0,-1.000000,2.000000,-1.000000,0.000000
164115,2026-07-29T17:00:40.667+08:00,682,1.364000,0,999,2,1000,0,-1.000000,2.000000,0.000000,0.000000
164116,2026-07-29T17:00:40.670+08:00,683,1.366000,0,999,2,1001,0,-1.000000,2.000000,1.000000,0.000000
164117,2026-07-29T17:00:40.670+08:00,684,1.368000,0,999,2,999,0,-1.000000,2.000000,-1.000000,0.000000
164118,2026-07-29T17:00:40.670+08:00,685,1.370000,0,1000,2,999,0,0.000000,2.000000,-1.000000,0.000000
164119,2026-07-29T17:00:40.673+08:00,686,1.372000,0,1000,2,1000,0,0.000000,2.000000,0.000000,0.000000
164120,2026-07-29T17:00:40.673+08:00,687,1.374000,0,999,2,999,0,-1.000000,2.000000,-1.000000,0.000000
164121,2026-07-29T17:00:40.673+08:00,688,1.376000,0,1000,2,998,0,0.000000,2.000000,-2.000000,0.000000
164122,2026-07-29T17:00:40.675+08:00,689,1.378000,0,1002,2,999,0,2.000000,2.000000,-1.000000,0.000000
164123,2026-07-29T17:00:40.675+08:00,690,1.380000,0,1001,2,1002,0,1.000000,2.000000,2.000000,0.000000
164124,2026-07-29T17:00:40.685+08:00,691,1.382000,0,997,2,1003,0,-3.000000,2.000000,3.000000,0.000000
164125,2026-07-29T17:00:40.685+08:00,692,1.384000,0,995,2,999,0,-5.000000,2.000000,-1.000000,0.000000
164126,2026-07-29T17:00:40.685+08:00,693,1.386000,0,997,2,995,0,-3.000000,2.000000,-5.000000,0.000000
164127,2026-07-29T17:00:40.692+08:00,694,1.388000,0,1003,2,996,0,3.000000,2.000000,-4.000000,0.000000
164128,2026-07-29T17:00:40.692+08:00,695,1.390000,0,1005,2,1001,0,5.000000,2.000000,1.000000,0.000000
164129,2026-07-29T17:00:40.692+08:00,696,1.392000,0,1001,2,1004,0,1.000000,2.000000,4.000000,0.000000
164130,2026-07-29T17:00:40.692+08:00,697,1.394000,0,996,2,1002,2,-4.000000,2.000000,2.000000,2.000000
164131,2026-07-29T17:00:40.697+08:00,698,1.396000,0,996,2,996,2,-4.000000,2.000000,-4.000000,2.000000
164132,2026-07-29T17:00:40.705+08:00,699,1.398000,0,1001,2,995,2,1.000000,2.000000,-5.000000,2.000000
164133,2026-07-29T17:00:40.705+08:00,700,1.400000,0,1002,2,1000,2,2.000000,2.000000,0.000000,2.000000
164134,2026-07-29T17:00:40.705+08:00,701,1.402000,0,1000,2,1004,2,0.000000,2.000000,4.000000,2.000000
164135,2026-07-29T17:00:40.705+08:00,702,1.404000,0,997,2,1002,2,-3.000000,2.000000,2.000000,2.000000
164136,2026-07-29T17:00:40.705+08:00,703,1.406000,0,998,2,995,2,-2.000000,2.000000,-5.000000,2.000000
164137,2026-07-29T17:00:40.705+08:00,704,1.408000,0,1001,2,995,2,1.000000,2.000000,-5.000000,2.000000
164138,2026-07-29T17:00:40.745+08:00,705,1.410000,0,1001,2,1001,2,1.000000,2.000000,1.000000,2.000000
164139,2026-07-29T17:00:40.745+08:00,706,1.412000,0,999,2,1005,2,-1.000000,2.000000,5.000000,2.000000
164140,2026-07-29T17:00:40.745+08:00,707,1.414000,0,998,2,1002,2,-2.000000,2.000000,2.000000,2.000000
164141,2026-07-29T17:00:40.745+08:00,708,1.416000,0,999,2,997,2,-1.000000,2.000000,-3.000000,2.000000
164142,2026-07-29T17:00:40.745+08:00,709,1.418000,0,1002,2,995,2,2.000000,2.000000,-5.000000,2.000000
164143,2026-07-29T17:00:40.745+08:00,710,1.420000,0,1002,2,998,2,2.000000,2.000000,-2.000000,2.000000
164144,2026-07-29T17:00:40.745+08:00,711,1.422000,0,998,2,1002,2,-2.000000,2.000000,2.000000,2.000000
164145,2026-07-29T17:00:40.745+08:00,712,1.424000,0,996,2,1003,2,-4.000000,2.000000,3.000000,2.000000
164146,2026-07-29T17:00:40.745+08:00,713,1.426000,0,998,2,1000,2,-2.000000,2.000000,0.000000,2.000000
164147,2026-07-29T17:00:40.745+08:00,714,1.428000,0,1001,2,998,2,1.000000,2.000000,-2.000000,2.000000
164148,2026-07-29T17:00:40.745+08:00,715,1.430000,0,1001,2,998,2,1.000000,2.000000,-2.000000,2.000000
164149,2026-07-29T17:00:40.745+08:00,716,1.432000,0,1000,2,1000,2,0.000000,2.000000,0.000000,2.000000
164150,2026-07-29T17:00:40.745+08:00,717,1.434000,0,999,2,1000,2,-1.000000,2.000000,0.000000,2.000000
164151,2026-07-29T17:00:40.745+08:00,718,1.436000,0,1000,2,999,2,0.000000,2.000000,-1.000000,2.000000
164152,2026-07-29T17:00:40.745+08:00,719,1.438000,0,1001,2,999,2,1.000000,2.000000,-1.000000,2.000000
164153,2026-07-29T17:00:40.745+08:00,720,1.440000,0,1000,2,1001,2,0.000000,2.000000,1.000000,2.000000
164154,2026-07-29T17:00:40.745+08:00,721,1.442000,0,998,2,1001,2,-2.000000,2.000000,1.000000,2.000000
164155,2026-07-29T17:00:40.745+08:00,722,1.444000,0,998,2,999,2,-2.000000,2.000000,-1.000000,2.000000
164156,2026-07-29T17:00:40.745+08:00,723,1.446000,0,998,2,998,2,-2.000000,2.000000,-2.000000,2.000000
164157,2026-07-29T17:00:40.748+08:00,724,1.448000,0,999,2,998,2,-1.000000,2.000000,-2.000000,2.000000
164158,2026-07-29T17:00:40.748+08:00,725,1.450000,0,1001,2,1000,2,1.000000,2.000000,0.000000,2.000000
164159,2026-07-29T17:00:40.748+08:00,726,1.452000,0,1001,2,1001,2,1.000000,2.000000,1.000000,2.000000
164160,2026-07-29T17:00:40.749+08:00,727,1.454000,0,1000,2,999,2,0.000000,2.000000,-1.000000,2.000000
164161,2026-07-29T17:00:40.760+08:00,728,1.456000,0,999,2,998,2,-1.000000,2.000000,-2.000000,2.000000
164162,2026-07-29T17:00:40.760+08:00,729,1.458000,0,999,2,999,2,-1.000000,2.000000,-1.000000,2.000000
164163,2026-07-29T17:00:40.760+08:00,730,1.460000,0,1000,2,1002,2,0.000000,2.000000,2.000000,2.000000
164164,2026-07-29T17:00:40.767+08:00,731,1.462000,0,1000,2,1002,2,0.000000,2.000000,2.000000,2.000000
164165,2026-07-29T17:00:40.767+08:00,732,1.464000,0,999,2,998,2,-1.000000,2.000000,-2.000000,2.000000
164166,2026-07-29T17:00:40.767+08:00,733,1.466000,0,998,2,995,2,-2.000000,2.000000,-5.000000,2.000000
164167,2026-07-29T17:00:40.767+08:00,734,1.468000,0,999,2,999,2,-1.000000,2.000000,-1.000000,2.000000
164168,2026-07-29T17:00:40.767+08:00,735,1.470000,0,1001,2,1004,2,1.000000,2.000000,4.000000,2.000000
164169,2026-07-29T17:00:40.779+08:00,736,1.472000,0,1000,2,1003,2,0.000000,2.000000,3.000000,2.000000
164170,2026-07-29T17:00:40.779+08:00,737,1.474000,0,999,2,998,2,-1.000000,2.000000,-2.000000,2.000000
164171,2026-07-29T17:00:40.779+08:00,738,1.476000,0,1000,2,995,2,0.000000,2.000000,-5.000000,2.000000
164172,2026-07-29T17:00:40.779+08:00,739,1.478000,0,1001,2,999,2,1.000000,2.000000,-1.000000,2.000000
164173,2026-07-29T17:00:40.779+08:00,740,1.480000,0,999,2,1003,2,-1.000000,2.000000,3.000000,2.000000
164174,2026-07-29T17:00:40.779+08:00,741,1.482000,0,997,2,1002,2,-3.000000,2.000000,2.000000,2.000000
164175,2026-07-29T17:00:40.779+08:00,742,1.484000,0,998,2,997,2,-2.000000,2.000000,-3.000000,2.000000
164176,2026-07-29T17:00:40.796+08:00,743,1.486000,0,1001,2,996,2,1.000000,2.000000,-4.000000,2.000000
164177,2026-07-29T17:00:40.796+08:00,744,1.488000,0,1003,2,1000,2,3.000000,2.000000,0.000000,2.000000
164178,2026-07-29T17:00:40.796+08:00,745,1.490000,0,1000,2,1003,2,0.000000,2.000000,3.000000,2.000000
164179,2026-07-29T17:00:40.796+08:00,746,1.492000,0,995,2,1001,2,-5.000000,2.000000,1.000000,2.000000
164180,2026-07-29T17:00:40.796+08:00,747,1.494000,0,996,2,997,2,-4.000000,2.000000,-3.000000,2.000000
164181,2026-07-29T17:00:40.796+08:00,748,1.496000,0,1002,2,997,2,2.000000,2.000000,-3.000000,2.000000
164182,2026-07-29T17:00:40.796+08:00,749,1.498000,0,1005,2,999,2,5.000000,2.000000,-1.000000,2.000000
164183,2026-07-29T17:00:40.816+08:00,750,1.500000,0,1002,2,1000,2,2.000000,2.000000,0.000000,2.000000
164184,2026-07-29T17:00:40.816+08:00,751,1.502000,0,997,2,999,2,-3.000000,2.000000,-1.000000,2.000000
164185,2026-07-29T17:00:40.816+08:00,752,1.504000,0,995,2,1000,2,-5.000000,2.000000,0.000000,2.000000
164186,2026-07-29T17:00:40.816+08:00,753,1.506000,0,998,2,1003,2,-2.000000,2.000000,3.000000,2.000000
164187,2026-07-29T17:00:40.816+08:00,754,1.508000,0,1000,2,1002,2,0.000000,2.000000,2.000000,2.000000
164188,2026-07-29T17:00:40.816+08:00,755,1.510000,0,1001,2,997,2,1.000000,2.000000,-3.000000,2.000000
164189,2026-07-29T17:00:40.816+08:00,756,1.512000,0,1001,2,994,2,1.000000,2.000000,-6.000000,2.000000
164190,2026-07-29T17:00:40.816+08:00,757,1.514000,0,1001,2,997,2,1.000000,2.000000,-3.000000,2.000000
164191,2026-07-29T17:00:40.819+08:00,758,1.516000,0,1001,2,1003,2,1.000000,2.000000,3.000000,2.000000
164192,2026-07-29T17:00:40.819+08:00,759,1.518000,0,1000,2,1005,2,0.000000,2.000000,5.000000,2.000000
164193,2026-07-29T17:00:40.819+08:00,760,1.520000,0,998,2,1001,2,-2.000000,2.000000,1.000000,2.000000
164194,2026-07-29T17:00:40.822+08:00,761,1.522000,0,998,2,996,2,-2.000000,2.000000,-4.000000,2.000000
164195,2026-07-29T17:00:40.822+08:00,762,1.524000,0,998,2,996,2,-2.000000,2.000000,-4.000000,2.000000
164196,2026-07-29T17:00:40.822+08:00,763,1.526000,0,1000,2,999,2,0.000000,2.000000,-1.000000,2.000000
164197,2026-07-29T17:00:40.825+08:00,764,1.528000,0,1001,2,1002,2,1.000000,2.000000,2.000000,2.000000
164198,2026-07-29T17:00:40.825+08:00,765,1.530000,0,1000,2,1001,2,0.000000,2.000000,1.000000,2.000000
164199,2026-07-29T17:00:40.840+08:00,766,1.532000,0,999,2,998,2,-1.000000,2.000000,-2.000000,2.000000
164200,2026-07-29T17:00:40.840+08:00,767,1.534000,0,999,2,998,2,-1.000000,2.000000,-2.000000,2.000000
164201,2026-07-29T17:00:40.840+08:00,768,1.536000,0,1000,2,1002,2,0.000000,2.000000,2.000000,2.000000
164202,2026-07-29T17:00:40.840+08:00,769,1.538000,0,1000,2,1002,2,0.000000,2.000000,2.000000,2.000000
164203,2026-07-29T17:00:40.840+08:00,770,1.540000,0,1000,2,999,2,0.000000,2.000000,-1.000000,2.000000
164204,2026-07-29T17:00:40.840+08:00,771,1.542000,0,999,2,995,2,-1.000000,2.000000,-5.000000,2.000000
164205,2026-07-29T17:00:40.840+08:00,772,1.544000,0,998,2,997,2,-2.000000,2.000000,-3.000000,2.000000
164206,2026-07-29T17:00:40.854+08:00,773,1.546000,0,998,2,1002,2,-2.000000,2.000000,2.000000,2.000000
164207,2026-07-29T17:00:40.854+08:00,774,1.548000,0,1000,2,1004,2,0.000000,2.000000,4.000000,2.000000
164208,2026-07-29T17:00:40.854+08:00,775,1.550000,0,1002,2,1002,2,2.000000,2.000000,2.000000,2.000000
164209,2026-07-29T17:00:40.854+08:00,776,1.552000,0,1000,2,997,2,0.000000,2.000000,-3.000000,2.000000
164210,2026-07-29T17:00:40.854+08:00,777,1.554000,0,997,2,995,2,-3.000000,2.000000,-5.000000,2.000000
164211,2026-07-29T17:00:40.854+08:00,778,1.556000,0,997,2,997,2,-3.000000,2.000000,-3.000000,2.000000
164212,2026-07-29T17:00:40.862+08:00,779,1.558000,0,1000,2,1002,2,0.000000,2.000000,2.000000,2.000000
164213,2026-07-29T17:00:40.862+08:00,780,1.560000,0,1003,2,1003,2,3.000000,2.000000,3.000000,2.000000
164214,2026-07-29T17:00:40.864+08:00,781,1.562000,0,1002,2,999,2,2.000000,2.000000,-1.000000,2.000000
164215,2026-07-29T17:00:40.894+08:00,782,1.564000,0,998,2,995,2,-2.000000,2.000000,-5.000000,2.000000
164216,2026-07-29T17:00:40.894+08:00,783,1.566000,0,995,2,998,2,-5.000000,2.000000,-2.000000,2.000000
164217,2026-07-29T17:00:40.894+08:00,784,1.568000,0,996,2,1003,2,-4.000000,2.000000,3.000000,2.000000
164218,2026-07-29T17:00:40.894+08:00,785,1.570000,0,1000,2,1004,2,0.000000,2.000000,4.000000,2.000000
164219,2026-07-29T17:00:40.894+08:00,786,1.572000,0,1003,2,998,2,3.000000,2.000000,-2.000000,2.000000
164220,2026-07-29T17:00:40.894+08:00,787,1.574000,0,1003,2,994,2,3.000000,2.000000,-6.000000,2.000000
164221,2026-07-29T17:00:40.894+08:00,788,1.576000,0,1000,2,996,2,0.000000,2.000000,-4.000000,2.000000
164222,2026-07-29T17:00:40.894+08:00,789,1.578000,0,997,2,1003,2,-3.000000,2.000000,3.000000,2.000000
164223,2026-07-29T17:00:40.894+08:00,790,1.580000,0,998,2,1005,2,-2.000000,2.000000,5.000000,2.000000
164224,2026-07-29T17:00:40.894+08:00,791,1.582000,0,1000,2,1001,2,0.000000,2.000000,1.000000,2.000000
164225,2026-07-29T17:00:40.894+08:00,792,1.584000,0,1000,2,996,2,0.000000,2.000000,-4.000000,2.000000
164226,2026-07-29T17:00:40.894+08:00,793,1.586000,0,998,2,997,2,-2.000000,2.000000,-3.000000,2.000000
164227,2026-07-29T17:00:40.894+08:00,794,1.588000,0,998,2,1000,2,-2.000000,2.000000,0.000000,2.000000
164228,2026-07-29T17:00:40.894+08:00,795,1.590000,0,1000,2,1000,2,0.000000,2.000000,0.000000,2.000000
164229,2026-07-29T17:00:40.894+08:00,796,1.592000,0,1002,2,999,2,2.000000,2.000000,-1.000000,2.000000
164230,2026-07-29T17:00:40.894+08:00,797,1.594000,0,1002,2,1000,2,2.000000,2.000000,0.000000,2.000000
164231,2026-07-29T17:00:40.894+08:00,798,1.596000,0,999,2,1001,2,-1.000000,2.000000,1.000000,2.000000
164232,2026-07-29T17:00:40.897+08:00,799,1.598000,0,998,2,1001,2,-2.000000,2.000000,1.000000,2.000000
164233,2026-07-29T17:00:40.897+08:00,800,1.600000,0,998,2,999,2,-2.000000,2.000000,-1.000000,2.000000
164234,2026-07-29T17:00:40.897+08:00,801,1.602000,0,1000,2,998,2,0.000000,2.000000,-2.000000,2.000000
164235,2026-07-29T17:00:40.899+08:00,802,1.604000,0,999,2,998,2,-1.000000,2.000000,-2.000000,2.000000
164236,2026-07-29T17:00:40.908+08:00,803,1.606000,0,999,2,1000,2,-1.000000,2.000000,0.000000,2.000000
164237,2026-07-29T17:00:40.919+08:00,804,1.608000,0,1000,2,1001,2,0.000000,2.000000,1.000000,2.000000
164238,2026-07-29T17:00:40.919+08:00,805,1.610000,0,1002,2,1000,2,2.000000,2.000000,0.000000,2.000000
164239,2026-07-29T17:00:40.919+08:00,806,1.612000,0,1001,2,999,2,1.000000,2.000000,-1.000000,2.000000
164240,2026-07-29T17:00:40.919+08:00,807,1.614000,0,998,2,999,2,-2.000000,2.000000,-1.000000,2.000000
164241,2026-07-29T17:00:40.919+08:00,808,1.616000,0,997,2,1000,2,-3.000000,2.000000,0.000000,2.000000
164242,2026-07-29T17:00:40.919+08:00,809,1.618000,0,1000,2,1000,2,0.000000,2.000000,0.000000,2.000000
164243,2026-07-29T17:00:40.919+08:00,810,1.620000,0,1003,2,998,2,3.000000,2.000000,-2.000000,2.000000
164244,2026-07-29T17:00:40.932+08:00,811,1.622000,0,1002,2,997,2,2.000000,2.000000,-3.000000,2.000000
164245,2026-07-29T17:00:40.932+08:00,812,1.624000,0,998,2,1000,2,-2.000000,2.000000,0.000000,2.000000
164246,2026-07-29T17:00:40.932+08:00,813,1.626000,0,995,2,1003,2,-5.000000,2.000000,3.000000,2.000000
164247,2026-07-29T17:00:40.933+08:00,814,1.628000,0,998,2,1001,2,-2.000000,2.000000,1.000000,2.000000
164248,2026-07-29T17:00:40.933+08:00,815,1.630000,0,1002,2,998,2,2.000000,2.000000,-2.000000,2.000000
164249,2026-07-29T17:00:40.933+08:00,816,1.632000,0,1002,2,997,2,2.000000,2.000000,-3.000000,2.000000
164250,2026-07-29T17:00:40.933+08:00,817,1.634000,0,999,2,999,2,-1.000000,2.000000,-1.000000,2.000000
164251,2026-07-29T17:00:40.957+08:00,818,1.636000,0,998,2,1000,2,-2.000000,2.000000,0.000000,2.000000
164252,2026-07-29T17:00:40.957+08:00,819,1.638000,0,1002,2,999,2,2.000000,2.000000,-1.000000,2.000000
164253,2026-07-29T17:00:40.957+08:00,820,1.640000,0,1004,2,998,2,4.000000,2.000000,-2.000000,2.000000
164254,2026-07-29T17:00:40.976+08:00,821,1.642000,0,1000,2,1001,2,0.000000,2.000000,1.000000,2.000000
164255,2026-07-29T17:00:40.976+08:00,822,1.644000,0,994,2,1003,2,-6.000000,2.000000,3.000000,2.000000
164256,2026-07-29T17:00:40.976+08:00,823,1.646000,0,993,2,1001,2,-7.000000,2.000000,1.000000,2.000000
164257,2026-07-29T17:00:40.976+08:00,824,1.648000,0,1000,2,996,2,0.000000,2.000000,-4.000000,2.000000
164258,2026-07-29T17:00:40.976+08:00,825,1.650000,0,1006,2,995,2,6.000000,2.000000,-5.000000,2.000000
164259,2026-07-29T17:00:40.976+08:00,826,1.652000,0,1004,2,999,2,4.000000,2.000000,-1.000000,2.000000
164260,2026-07-29T17:00:40.976+08:00,827,1.654000,0,998,2,1003,2,-2.000000,2.000000,3.000000,2.000000
164261,2026-07-29T17:00:40.976+08:00,828,1.656000,0,995,2,1003,2,-5.000000,2.000000,3.000000,2.000000
164262,2026-07-29T17:00:40.976+08:00,829,1.658000,0,998,2,999,2,-2.000000,2.000000,-1.000000,2.000000
164263,2026-07-29T17:00:40.976+08:00,830,1.660000,0,1002,2,997,2,2.000000,2.000000,-3.000000,2.000000
164264,2026-07-29T17:00:40.976+08:00,831,1.662000,0,1001,2,999,2,1.000000,2.000000,-1.000000,2.000000
164265,2026-07-29T17:00:40.976+08:00,832,1.664000,0,997,2,1001,2,-3.000000,2.000000,1.000000,2.000000
164266,2026-07-29T17:00:40.976+08:00,833,1.666000,0,996,2,999,2,-4.000000,2.000000,-1.000000,2.000000
164267,2026-07-29T17:00:40.976+08:00,834,1.668000,0,1001,2,997,2,1.000000,2.000000,-3.000000,2.000000
164268,2026-07-29T17:00:40.976+08:00,835,1.670000,0,1005,2,999,2,5.000000,2.000000,-1.000000,2.000000
164269,2026-07-29T17:00:40.976+08:00,836,1.672000,0,1002,2,1003,2,2.000000,2.000000,3.000000,2.000000
164270,2026-07-29T17:00:40.976+08:00,837,1.674000,0,996,2,1003,2,-4.000000,2.000000,3.000000,2.000000
164271,2026-07-29T17:00:40.976+08:00,838,1.676000,0,995,2,1000,2,-5.000000,2.000000,0.000000,2.000000
164272,2026-07-29T17:00:40.976+08:00,839,1.678000,0,999,2,996,2,-1.000000,2.000000,-4.000000,2.000000
164273,2026-07-29T17:00:40.976+08:00,840,1.680000,0,1004,2,996,2,4.000000,2.000000,-4.000000,2.000000
164274,2026-07-29T17:00:40.983+08:00,841,1.682000,0,1003,2,998,2,3.000000,2.000000,-2.000000,2.000000
164275,2026-07-29T17:00:40.985+08:00,842,1.684000,0,999,2,1002,2,-1.000000,2.000000,2.000000,2.000000
164276,2026-07-29T17:00:40.985+08:00,843,1.686000,0,996,2,1003,2,-4.000000,2.000000,3.000000,2.000000
164277,2026-07-29T17:00:40.985+08:00,844,1.688000,0,997,2,1001,2,-3.000000,2.000000,1.000000,2.000000
164278,2026-07-29T17:00:40.990+08:00,845,1.690000,0,999,2,999,2,-1.000000,2.000000,-1.000000,2.000000
164279,2026-07-29T17:00:40.990+08:00,846,1.692000,0,1000,2,998,2,0.000000,2.000000,-2.000000,2.000000
164280,2026-07-29T17:00:40.990+08:00,847,1.694000,0,1000,2,998,2,0.000000,2.000000,-2.000000,2.000000
164281,2026-07-29T17:00:41.005+08:00,848,1.696000,0,1000,2,998,2,0.000000,2.000000,-2.000000,2.000000
164282,2026-07-29T17:00:41.005+08:00,849,1.698000,0,1002,2,999,2,2.000000,2.000000,-1.000000,2.000000
164283,2026-07-29T17:00:41.005+08:00,850,1.700000,0,1003,2,1001,2,3.000000,2.000000,1.000000,2.000000
164284,2026-07-29T17:00:41.005+08:00,851,1.702000,0,999,2,1002,2,-1.000000,2.000000,2.000000,2.000000
164285,2026-07-29T17:00:41.005+08:00,852,1.704000,0,994,2,1002,2,-6.000000,2.000000,2.000000,2.000000
164286,2026-07-29T17:00:41.005+08:00,853,1.706000,0,994,2,1000,2,-6.000000,2.000000,0.000000,2.000000
164287,2026-07-29T17:00:41.005+08:00,854,1.708000,0,999,2,996,2,-1.000000,2.000000,-4.000000,2.000000
164288,2026-07-29T17:00:41.006+08:00,855,1.710000,0,1004,2,995,2,4.000000,2.000000,-5.000000,2.000000
164289,2026-07-29T17:00:41.053+08:00,856,1.712000,0,1004,2,998,2,4.000000,2.000000,-2.000000,2.000000
164290,2026-07-29T17:00:41.053+08:00,857,1.714000,0,1000,2,1004,2,0.000000,2.000000,4.000000,2.000000
164291,2026-07-29T17:00:41.053+08:00,858,1.716000,0,997,2,1005,2,-3.000000,2.000000,5.000000,2.000000
164292,2026-07-29T17:00:41.053+08:00,859,1.718000,0,998,2,1001,2,-2.000000,2.000000,1.000000,2.000000
164293,2026-07-29T17:00:41.053+08:00,860,1.720000,0,1000,2,996,2,0.000000,2.000000,-4.000000,2.000000
164294,2026-07-29T17:00:41.053+08:00,861,1.722000,0,1000,2,995,2,0.000000,2.000000,-5.000000,2.000000
164295,2026-07-29T17:00:41.054+08:00,862,1.724000,0,997,2,998,2,-3.000000,2.000000,-2.000000,2.000000
164296,2026-07-29T17:00:41.054+08:00,863,1.726000,0,997,2,1002,2,-3.000000,2.000000,2.000000,2.000000
164297,2026-07-29T17:00:41.054+08:00,864,1.728000,0,1002,2,1003,2,2.000000,2.000000,3.000000,2.000000
164298,2026-07-29T17:00:41.054+08:00,865,1.730000,0,1006,2,1002,2,6.000000,2.000000,2.000000,2.000000
164299,2026-07-29T17:00:41.054+08:00,866,1.732000,0,1003,2,999,2,3.000000,2.000000,-1.000000,2.000000
164300,2026-07-29T17:00:41.054+08:00,867,1.734000,0,995,2,997,2,-5.000000,2.000000,-3.000000,2.000000
164301,2026-07-29T17:00:41.054+08:00,868,1.736000,0,993,2,997,2,-7.000000,2.000000,-3.000000,2.000000
164302,2026-07-29T17:00:41.054+08:00,869,1.738000,0,998,2,1000,2,-2.000000,2.000000,0.000000,2.000000
164303,2026-07-29T17:00:41.054+08:00,870,1.740000,0,1005,2,1001,2,5.000000,2.000000,1.000000,2.000000
164304,2026-07-29T17:00:41.054+08:00,871,1.742000,0,1005,2,1001,2,5.000000,2.000000,1.000000,2.000000
164305,2026-07-29T17:00:41.054+08:00,872,1.744000,0,1000,2,999,2,0.000000,2.000000,-1.000000,2.000000
164306,2026-07-29T17:00:41.054+08:00,873,1.746000,0,995,2,999,2,-5.000000,2.000000,-1.000000,2.000000
164307,2026-07-29T17:00:41.054+08:00,874,1.748000,0,995,2,999,2,-5.000000,2.000000,-1.000000,2.000000
164308,2026-07-29T17:00:41.054+08:00,875,1.750000,0,1000,2,999,2,0.000000,2.000000,-1.000000,2.000000
164309,2026-07-29T17:00:41.054+08:00,876,1.752000,0,1002,2,1000,2,2.000000,2.000000,0.000000,2.000000
164310,2026-07-29T17:00:41.054+08:00,877,1.754000,0,1001,2,1000,2,1.000000,2.000000,0.000000,2.000000
164311,2026-07-29T17:00:41.060+08:00,878,1.756000,0,999,2,1000,2,-1.000000,2.000000,0.000000,2.000000
164312,2026-07-29T17:00:41.060+08:00,879,1.758000,0,1001,2,999,2,1.000000,2.000000,-1.000000,2.000000
164313,2026-07-29T17:00:41.060+08:00,880,1.760000,0,1002,2,999,2,2.000000,2.000000,-1.000000,2.000000
164314,2026-07-29T17:00:41.063+08:00,881,1.762000,0,999,2,1000,2,-1.000000,2.000000,0.000000,2.000000
164315,2026-07-29T17:00:41.063+08:00,882,1.764000,0,995,2,1000,2,-5.000000,2.000000,0.000000,2.000000
164316,2026-07-29T17:00:41.063+08:00,883,1.766000,0,995,2,999,2,-5.000000,2.000000,-1.000000,2.000000
164317,2026-07-29T17:00:41.066+08:00,884,1.768000,0,1000,2,999,2,0.000000,2.000000,-1.000000,2.000000
164318,2026-07-29T17:00:41.066+08:00,885,1.770000,0,1004,2,1000,2,4.000000,2.000000,0.000000,2.000000
164319,2026-07-29T17:00:41.076+08:00,886,1.772000,0,1003,2,1001,2,3.000000,2.000000,1.000000,2.000000
164320,2026-07-29T17:00:41.076+08:00,887,1.774000,0,999,2,1000,2,-1.000000,2.000000,0.000000,2.000000
164321,2026-07-29T17:00:41.076+08:00,888,1.776000,0,997,2,998,2,-3.000000,2.000000,-2.000000,2.000000
164322,2026-07-29T17:00:41.076+08:00,889,1.778000,0,999,2,997,2,-1.000000,2.000000,-3.000000,2.000000
164323,2026-07-29T17:00:41.082+08:00,890,1.780000,0,1001,2,1000,2,1.000000,2.000000,0.000000,2.000000
164324,2026-07-29T17:00:41.082+08:00,891,1.782000,0,1000,2,1003,2,0.000000,2.000000,3.000000,2.000000
164325,2026-07-29T17:00:41.082+08:00,892,1.784000,0,998,2,1002,2,-2.000000,2.000000,2.000000,2.000000
164326,2026-07-29T17:00:41.097+08:00,893,1.786000,0,998,2,996,2,-2.000000,2.000000,-4.000000,2.000000
164327,2026-07-29T17:00:41.097+08:00,894,1.788000,0,1000,2,995,2,0.000000,2.000000,-5.000000,2.000000
164328,2026-07-29T17:00:41.097+08:00,895,1.790000,0,1002,2,1000,2,2.000000,2.000000,0.000000,2.000000
164329,2026-07-29T17:00:41.097+08:00,896,1.792000,0,1001,2,1004,2,1.000000,2.000000,4.000000,2.000000
164330,2026-07-29T17:00:41.097+08:00,897,1.794000,0,999,2,1002,2,-1.000000,2.000000,2.000000,2.000000
164331,2026-07-29T17:00:41.097+08:00,898,1.796000,0,999,2,996,2,-1.000000,2.000000,-4.000000,2.000000
164332,2026-07-29T17:00:41.097+08:00,899,1.798000,0,999,2,995,2,-1.000000,2.000000,-5.000000,2.000000
164333,2026-07-29T17:00:41.097+08:00,900,1.800000,0,999,2,1000,2,-1.000000,2.000000,0.000000,2.000000
164334,2026-07-29T17:00:41.111+08:00,901,1.802000,0,1000,2,1005,2,0.000000,2.000000,5.000000,2.000000
164335,2026-07-29T17:00:41.111+08:00,902,1.804000,0,1000,2,1003,2,0.000000,2.000000,3.000000,2.000000
164336,2026-07-29T17:00:41.111+08:00,903,1.806000,0,1000,2,996,2,0.000000,2.000000,-4.000000,2.000000
164337,2026-07-29T17:00:41.111+08:00,904,1.808000,0,1000,2,993,2,0.000000,2.000000,-7.000000,2.000000
164338,2026-07-29T17:00:41.111+08:00,905,1.810000,0,999,2,998,2,-1.000000,2.000000,-2.000000,2.000000
164339,2026-07-29T17:00:41.111+08:00,906,1.812000,0,999,2,1006,2,-1.000000,2.000000,6.000000,2.000000
164340,2026-07-29T17:00:41.111+08:00,907,1.814000,0,998,2,1006,2,-2.000000,2.000000,6.000000,2.000000
164341,2026-07-29T17:00:41.132+08:00,908,1.816000,0,999,2,999,2,-1.000000,2.000000,-1.000000,2.000000
164342,2026-07-29T17:00:41.132+08:00,909,1.818000,0,1002,2,993,2,2.000000,2.000000,-7.000000,2.000000
164343,2026-07-29T17:00:41.132+08:00,910,1.820000,0,1004,2,994,2,4.000000,2.000000,-6.000000,2.000000
164344,2026-07-29T17:00:41.132+08:00,911,1.822000,0,1000,2,1001,2,0.000000,2.000000,1.000000,2.000000
164345,2026-07-29T17:00:41.132+08:00,912,1.824000,0,995,2,1005,2,-5.000000,2.000000,5.000000,2.000000
164346,2026-07-29T17:00:41.132+08:00,913,1.826000,0,993,2,1003,2,-7.000000,2.000000,3.000000,2.000000
164347,2026-07-29T17:00:41.132+08:00,914,1.828000,0,998,2,999,2,-2.000000,2.000000,-1.000000,2.000000
164348,2026-07-29T17:00:41.132+08:00,915,1.830000,0,1004,2,996,2,4.000000,2.000000,-4.000000,2.000000
164349,2026-07-29T17:00:41.135+08:00,916,1.832000,0,1005,2,997,2,5.000000,2.000000,-3.000000,2.000000
164350,2026-07-29T17:00:41.135+08:00,917,1.834000,0,1001,2,999,2,1.000000,2.000000,-1.000000,2.000000
164351,2026-07-29T17:00:41.135+08:00,918,1.836000,0,996,2,1002,2,-4.000000,2.000000,2.000000,2.000000
164352,2026-07-29T17:00:41.138+08:00,919,1.838000,0,996,2,1002,2,-4.000000,2.000000,2.000000,2.000000
164353,2026-07-29T17:00:41.138+08:00,920,1.840000,0,999,2,999,2,-1.000000,2.000000,-1.000000,2.000000
164354,2026-07-29T17:00:41.138+08:00,921,1.842000,0,1002,2,998,2,2.000000,2.000000,-2.000000,2.000000
164355,2026-07-29T17:00:41.139+08:00,922,1.844000,0,1000,2,998,2,0.000000,2.000000,-2.000000,2.000000
164356,2026-07-29T17:00:41.154+08:00,923,1.846000,0,998,2,1000,2,-2.000000,2.000000,0.000000,2.000000
164357,2026-07-29T17:00:41.154+08:00,924,1.848000,0,999,2,1001,2,-1.000000,2.000000,1.000000,2.000000
164358,2026-07-29T17:00:41.154+08:00,925,1.850000,0,1000,2,1000,2,0.000000,2.000000,0.000000,2.000000
164359,2026-07-29T17:00:41.154+08:00,926,1.852000,0,1000,2,998,2,0.000000,2.000000,-2.000000,2.000000
164360,2026-07-29T17:00:41.154+08:00,927,1.854000,0,999,2,998,2,-1.000000,2.000000,-2.000000,2.000000
164361,2026-07-29T17:00:41.154+08:00,928,1.856000,0,999,2,1000,2,-1.000000,2.000000,0.000000,2.000000
164362,2026-07-29T17:00:41.165+08:00,929,1.858000,0,1001,2,1002,2,1.000000,2.000000,2.000000,2.000000
164363,2026-07-29T17:00:41.165+08:00,930,1.860000,0,1002,2,1001,2,2.000000,2.000000,1.000000,2.000000
164364,2026-07-29T17:00:41.165+08:00,931,1.862000,0,1000,2,998,2,0.000000,2.000000,-2.000000,2.000000
164365,2026-07-29T17:00:41.165+08:00,932,1.864000,0,997,2,995,2,-3.000000,2.000000,-5.000000,2.000000
164366,2026-07-29T17:00:41.165+08:00,933,1.866000,0,997,2,998,2,-3.000000,2.000000,-2.000000,2.000000
164367,2026-07-29T17:00:41.165+08:00,934,1.868000,0,1000,2,1004,2,0.000000,2.000000,4.000000,2.000000
164368,2026-07-29T17:00:41.173+08:00,935,1.870000,0,1002,2,1005,2,2.000000,2.000000,5.000000,2.000000
164369,2026-07-29T17:00:41.173+08:00,936,1.872000,0,1001,2,999,2,1.000000,2.000000,-1.000000,2.000000
164370,2026-07-29T17:00:41.173+08:00,937,1.874000,0,999,2,994,2,-1.000000,2.000000,-6.000000,2.000000
164371,2026-07-29T17:00:41.204+08:00,938,1.876000,0,999,2,995,2,-1.000000,2.000000,-5.000000,2.000000
164372,2026-07-29T17:00:41.204+08:00,939,1.878000,0,1001,2,1002,2,1.000000,2.000000,2.000000,2.000000
164373,2026-07-29T17:00:41.204+08:00,940,1.880000,0,1001,2,1004,2,1.000000,2.000000,4.000000,2.000000
164374,2026-07-29T17:00:41.204+08:00,941,1.882000,0,999,2,1001,2,-1.000000,2.000000,1.000000,2.000000
164375,2026-07-29T17:00:41.204+08:00,942,1.884000,0,996,2,996,2,-4.000000,2.000000,-4.000000,2.000000
164376,2026-07-29T17:00:41.204+08:00,943,1.886000,0,997,2,997,2,-3.000000,2.000000,-3.000000,2.000000
164377,2026-07-29T17:00:41.204+08:00,944,1.888000,0,1000,2,1001,2,0.000000,2.000000,1.000000,2.000000
164378,2026-07-29T17:00:41.204+08:00,945,1.890000,0,1002,2,1002,2,2.000000,2.000000,2.000000,2.000000
164379,2026-07-29T17:00:41.205+08:00,946,1.892000,0,1001,2,999,2,1.000000,2.000000,-1.000000,2.000000
164380,2026-07-29T17:00:41.205+08:00,947,1.894000,0,999,2,997,2,-1.000000,2.000000,-3.000000,2.000000
164381,2026-07-29T17:00:41.205+08:00,948,1.896000,0,1000,2,999,2,0.000000,2.000000,-1.000000,2.000000
164382,2026-07-29T17:00:41.205+08:00,949,1.898000,0,1000,2,1003,2,0.000000,2.000000,3.000000,2.000000
164383,2026-07-29T17:00:41.205+08:00,950,1.900000,0,999,2,1002,2,-1.000000,2.000000,2.000000,2.000000
164384,2026-07-29T17:00:41.205+08:00,951,1.902000,0,997,2,997,2,-3.000000,2.000000,-3.000000,2.000000
164385,2026-07-29T17:00:41.205+08:00,952,1.904000,0,998,2,996,2,-2.000000,2.000000,-4.000000,2.000000
164386,2026-07-29T17:00:41.209+08:00,953,1.906000,0,1001,2,999,2,1.000000,2.000000,-1.000000,2.000000
164387,2026-07-29T17:00:41.209+08:00,954,1.908000,0,1003,2,1002,2,3.000000,2.000000,2.000000,2.000000
164388,2026-07-29T17:00:41.209+08:00,955,1.910000,0,1000,2,1002,2,0.000000,2.000000,2.000000,2.000000
164389,2026-07-29T17:00:41.212+08:00,956,1.912000,0,997,2,1000,2,-3.000000,2.000000,0.000000,2.000000
164390,2026-07-29T17:00:41.212+08:00,957,1.914000,0,997,2,997,2,-3.000000,2.000000,-3.000000,2.000000
164391,2026-07-29T17:00:41.212+08:00,958,1.916000,0,1000,2,997,2,0.000000,2.000000,-3.000000,2.000000
164392,2026-07-29T17:00:41.215+08:00,959,1.918000,0,1002,2,999,2,2.000000,2.000000,-1.000000,2.000000
164393,2026-07-29T17:00:41.215+08:00,960,1.920000,0,1002,2,1002,2,2.000000,2.000000,2.000000,2.000000
164394,2026-07-29T17:00:41.229+08:00,961,1.922000,0,999,2,1002,2,-1.000000,2.000000,2.000000,2.000000
164395,2026-07-29T17:00:41.229+08:00,962,1.924000,0,997,2,998,2,-3.000000,2.000000,-2.000000,2.000000
164396,2026-07-29T17:00:41.229+08:00,963,1.926000,0,998,2,996,2,-2.000000,2.000000,-4.000000,2.000000
164397,2026-07-29T17:00:41.229+08:00,964,1.928000,0,1000,2,998,2,0.000000,2.000000,-2.000000,2.000000
164398,2026-07-29T17:00:41.229+08:00,965,1.930000,0,999,2,1003,2,-1.000000,2.000000,3.000000,2.000000
164399,2026-07-29T17:00:41.229+08:00,966,1.932000,0,999,2,1003,2,-1.000000,2.000000,3.000000,2.000000
164400,2026-07-29T17:00:41.241+08:00,967,1.934000,0,1001,2,998,2,1.000000,2.000000,-2.000000,2.000000
164401,2026-07-29T17:00:41.241+08:00,968,1.936000,0,1002,2,994,2,2.000000,2.000000,-6.000000,2.000000
164402,2026-07-29T17:00:41.241+08:00,969,1.938000,0,1000,2,996,2,0.000000,2.000000,-4.000000,2.000000
164403,2026-07-29T17:00:41.241+08:00,970,1.940000,0,998,2,1003,2,-2.000000,2.000000,3.000000,2.000000
164404,2026-07-29T17:00:41.247+08:00,971,1.942000,0,998,2,1005,2,-2.000000,2.000000,5.000000,2.000000
164405,2026-07-29T17:00:41.247+08:00,972,1.944000,0,999,2,1001,2,-1.000000,2.000000,1.000000,2.000000
164406,2026-07-29T17:00:41.247+08:00,973,1.946000,0,1000,2,995,2,0.000000,2.000000,-5.000000,2.000000
164407,2026-07-29T17:00:41.247+08:00,974,1.948000,0,998,2,995,2,-2.000000,2.000000,-5.000000,2.000000
164408,2026-07-29T17:00:41.247+08:00,975,1.950000,0,998,2,1000,2,-2.000000,2.000000,0.000000,2.000000
164409,2026-07-29T17:00:41.261+08:00,976,1.952000,0,1000,2,1003,2,0.000000,2.000000,3.000000,2.000000
164410,2026-07-29T17:00:41.261+08:00,977,1.954000,0,1003,2,1001,2,3.000000,2.000000,1.000000,2.000000
164411,2026-07-29T17:00:41.261+08:00,978,1.956000,0,1003,2,998,2,3.000000,2.000000,-2.000000,2.000000
164412,2026-07-29T17:00:41.261+08:00,979,1.958000,0,999,2,999,2,-1.000000,2.000000,-1.000000,2.000000
164413,2026-07-29T17:00:41.261+08:00,980,1.960000,0,995,2,1002,2,-5.000000,2.000000,2.000000,2.000000
164414,2026-07-29T17:00:41.261+08:00,981,1.962000,0,995,2,1001,2,-5.000000,2.000000,1.000000,2.000000
164415,2026-07-29T17:00:41.261+08:00,982,1.964000,0,1000,2,997,2,0.000000,2.000000,-3.000000,2.000000
164416,2026-07-29T17:00:41.280+08:00,983,1.966000,0,1004,2,996,2,4.000000,2.000000,-4.000000,2.000000
164417,2026-07-29T17:00:41.280+08:00,984,1.968000,0,1003,2,999,2,3.000000,2.000000,-1.000000,2.000000
164418,2026-07-29T17:00:41.280+08:00,985,1.970000,0,998,2,1004,2,-2.000000,2.000000,4.000000,2.000000
164419,2026-07-29T17:00:41.280+08:00,986,1.972000,0,996,2,1004,2,-4.000000,2.000000,4.000000,2.000000
164420,2026-07-29T17:00:41.280+08:00,987,1.974000,0,998,2,999,2,-2.000000,2.000000,-1.000000,2.000000
164421,2026-07-29T17:00:41.280+08:00,988,1.976000,0,1001,2,996,2,1.000000,2.000000,-4.000000,2.000000
164422,2026-07-29T17:00:41.280+08:00,989,1.978000,0,1002,2,995,2,2.000000,2.000000,-5.000000,2.000000
164423,2026-07-29T17:00:41.280+08:00,990,1.980000,0,1001,2,998,2,1.000000,2.000000,-2.000000,2.000000
164424,2026-07-29T17:00:41.285+08:00,991,1.982000,0,999,2,1002,2,-1.000000,2.000000,2.000000,2.000000
164425,2026-07-29T17:00:41.285+08:00,992,1.984000,0,997,2,1004,2,-3.000000,2.000000,4.000000,2.000000
164426,2026-07-29T17:00:41.285+08:00,993,1.986000,0,998,2,1001,2,-2.000000,2.000000,1.000000,2.000000
164427,2026-07-29T17:00:41.287+08:00,994,1.988000,0,1000,2,997,2,0.000000,2.000000,-3.000000,2.000000
164428,2026-07-29T17:00:41.287+08:00,995,1.990000,0,1000,2,996,2,0.000000,2.000000,-4.000000,2.000000
164429,2026-07-29T17:00:41.287+08:00,996,1.992000,0,998,2,998,2,-2.000000,2.000000,-2.000000,2.000000
164430,2026-07-29T17:00:41.289+08:00,997,1.994000,0,997,2,1001,2,-3.000000,2.000000,1.000000,2.000000
164431,2026-07-29T17:00:41.308+08:00,998,1.996000,0,1001,2,1001,2,1.000000,2.000000,1.000000,2.000000
164432,2026-07-29T17:00:41.308+08:00,999,1.998000,0,1005,2,1000,2,5.000000,2.000000,0.000000,2.000000
164433,2026-07-29T17:00:41.308+08:00,1000,2.000000,0,1003,2,1000,2,3.000000,2.000000,0.000000,2.000000
164434,2026-07-29T17:00:41.308+08:00,1001,2.002000,0,996,2,1000,2,-4.000000,2.000000,0.000000,2.000000
164435,2026-07-29T17:00:41.308+08:00,1002,2.004000,0,992,2,999,2,-8.000000,2.000000,-1.000000,2.000000
164436,2026-07-29T17:00:41.308+08:00,1003,2.006000,0,996,2,998,2,-4.000000,2.000000,-2.000000,2.000000
164437,2026-07-29T17:00:41.308+08:00,1004,2.008000,0,1003,2,997,2,3.000000,2.000000,-3.000000,2.000000
164438,2026-07-29T17:00:41.308+08:00,1005,2.010000,0,1006,2,998,2,6.000000,2.000000,-2.000000,2.000000
164439,2026-07-29T17:00:41.322+08:00,1006,2.012000,0,1002,2,1001,2,2.000000,2.000000,1.000000,2.000000
164440,2026-07-29T17:00:41.322+08:00,1007,2.014000,0,997,2,1003,2,-3.000000,2.000000,3.000000,2.000000
164441,2026-07-29T17:00:41.322+08:00,1008,2.016000,0,996,2,1002,2,-4.000000,2.000000,2.000000,2.000000
164442,2026-07-29T17:00:41.339+08:00,1009,2.018000,0,999,2,999,2,-1.000000,2.000000,-1.000000,2.000000
164443,2026-07-29T17:00:41.339+08:00,1010,2.020000,0,1001,2,996,2,1.000000,2.000000,-4.000000,2.000000
164444,2026-07-29T17:00:41.339+08:00,1011,2.022000,0,1000,2,996,4,0.000000,2.000000,-4.000000,4.000000
164445,2026-07-29T17:00:41.339+08:00,1012,2.024000,0,998,2,998,4,-2.000000,2.000000,-2.000000,4.000000
164446,2026-07-29T17:00:41.339+08:00,1013,2.026000,0,999,2,1002,4,-1.000000,2.000000,2.000000,4.000000
164447,2026-07-29T17:00:41.339+08:00,1014,2.028000,0,1002,2,1005,4,2.000000,2.000000,5.000000,4.000000
164448,2026-07-29T17:00:41.339+08:00,1015,2.030000,0,1003,2,1003,4,3.000000,2.000000,3.000000,4.000000
164449,2026-07-29T17:00:41.339+08:00,1016,2.032000,0,998,2,997,4,-2.000000,2.000000,-3.000000,4.000000
164450,2026-07-29T17:00:41.339+08:00,1017,2.034000,0,994,2,994,4,-6.000000,2.000000,-6.000000,4.000000
164451,2026-07-29T17:00:41.339+08:00,1018,2.036000,0,996,2,996,4,-4.000000,2.000000,-4.000000,4.000000
164452,2026-07-29T17:00:41.357+08:00,1019,2.038000,0,1003,2,1002,4,3.000000,2.000000,2.000000,4.000000
164453,2026-07-29T17:00:41.357+08:00,1020,2.040000,0,1007,2,1004,4,7.000000,2.000000,4.000000,4.000000
164454,2026-07-29T17:00:41.357+08:00,1021,2.042000,0,1002,2,1001,4,2.000000,2.000000,1.000000,4.000000
164455,2026-07-29T17:00:41.357+08:00,1022,2.044000,0,994,2,998,4,-6.000000,2.000000,-2.000000,4.000000
164456,2026-07-29T17:00:41.357+08:00,1023,2.046000,0,993,2,997,4,-7.000000,2.000000,-3.000000,4.000000
164457,2026-07-29T17:00:41.357+08:00,1024,2.048000,0,999,2,999,4,-1.000000,2.000000,-1.000000,4.000000
164458,2026-07-29T17:00:41.357+08:00,1025,2.050000,0,1003,2,1000,4,3.000000,2.000000,0.000000,4.000000
164459,2026-07-29T17:00:41.357+08:00,1026,2.052000,0,1002,2,1000,4,2.000000,2.000000,0.000000,4.000000
164460,2026-07-29T17:00:41.357+08:00,1027,2.054000,0,998,2,1000,4,-2.000000,2.000000,0.000000,4.000000
164461,2026-07-29T17:00:41.359+08:00,1028,2.056000,0,1000,2,1000,4,0.000000,2.000000,0.000000,4.000000
164462,2026-07-29T17:00:41.359+08:00,1029,2.058000,0,1003,2,999,2,3.000000,2.000000,-1.000000,2.000000
164463,2026-07-29T17:00:41.359+08:00,1030,2.060000,0,1001,2,998,2,1.000000,2.000000,-2.000000,2.000000
164464,2026-07-29T17:00:41.363+08:00,1031,2.062000,0,996,2,999,2,-4.000000,2.000000,-1.000000,2.000000
164465,2026-07-29T17:00:41.363+08:00,1032,2.064000,0,994,2,1000,2,-6.000000,2.000000,0.000000,2.000000
164466,2026-07-29T17:00:41.363+08:00,1033,2.066000,0,999,2,1001,2,-1.000000,2.000000,1.000000,2.000000
164467,2026-07-29T17:00:41.366+08:00,1034,2.068000,0,1004,2,1000,2,4.000000,2.000000,0.000000,2.000000
164468,2026-07-29T17:00:41.366+08:00,1035,2.070000,0,1004,2,998,2,4.000000,2.000000,-2.000000,2.000000
164469,2026-07-29T17:00:41.377+08:00,1036,2.072000,0,999,2,998,2,-1.000000,2.000000,-2.000000,2.000000
164470,2026-07-29T17:00:41.377+08:00,1037,2.074000,0,996,2,1001,2,-4.000000,2.000000,1.000000,2.000000
164471,2026-07-29T17:00:41.377+08:00,1038,2.076000,0,999,2,1002,2,-1.000000,2.000000,2.000000,2.000000
164472,2026-07-29T17:00:41.377+08:00,1039,2.078000,0,1001,2,1000,2,1.000000,2.000000,0.000000,2.000000
164473,2026-07-29T17:00:41.377+08:00,1040,2.080000,0,1001,2,997,2,1.000000,2.000000,-3.000000,2.000000
164474,2026-07-29T17:00:41.377+08:00,1041,2.082000,0,999,2,998,2,-1.000000,2.000000,-2.000000,2.000000
164475,2026-07-29T17:00:41.385+08:00,1042,2.084000,0,997,2,1000,2,-3.000000,2.000000,0.000000,2.000000
164476,2026-07-29T17:00:41.390+08:00,1043,2.086000,0,998,2,1001,2,-2.000000,2.000000,1.000000,2.000000
164477,2026-07-29T17:00:41.390+08:00,1044,2.088000,0,1000,2,1000,2,0.000000,2.000000,0.000000,2.000000
164478,2026-07-29T17:00:41.390+08:00,1045,2.090000,0,1002,2,1000,2,2.000000,2.000000,0.000000,2.000000
164479,2026-07-29T17:00:41.399+08:00,1046,2.092000,0,1002,2,1000,2,2.000000,2.000000,0.000000,2.000000
164480,2026-07-29T17:00:41.399+08:00,1047,2.094000,0,999,2,999,2,-1.000000,2.000000,-1.000000,2.000000
164481,2026-07-29T17:00:41.399+08:00,1048,2.096000,0,997,2,999,2,-3.000000,2.000000,-1.000000,2.000000
164482,2026-07-29T17:00:41.399+08:00,1049,2.098000,0,997,2,999,2,-3.000000,2.000000,-1.000000,2.000000
164483,2026-07-29T17:00:41.399+08:00,1050,2.100000,0,1000,2,999,2,0.000000,2.000000,-1.000000,2.000000
164484,2026-07-29T17:00:41.403+08:00,1051,2.102000,0,1003,2,999,2,3.000000,2.000000,-1.000000,2.000000
164485,2026-07-29T17:00:41.405+08:00,1052,2.104000,0,1001,2,1000,2,1.000000,2.000000,0.000000,2.000000
164486,2026-07-29T17:00:41.405+08:00,1053,2.106000,0,998,2,1001,2,-2.000000,2.000000,1.000000,2.000000
164487,2026-07-29T17:00:41.405+08:00,1054,2.108000,0,996,2,1002,2,-4.000000,2.000000,2.000000,2.000000
164488,2026-07-29T17:00:41.420+08:00,1055,2.110000,0,998,2,1000,2,-2.000000,2.000000,0.000000,2.000000
164489,2026-07-29T17:00:41.420+08:00,1056,2.112000,0,1001,2,997,2,1.000000,2.000000,-3.000000,2.000000
164490,2026-07-29T17:00:41.420+08:00,1057,2.114000,0,1002,2,996,2,2.000000,2.000000,-4.000000,2.000000
164491,2026-07-29T17:00:41.420+08:00,1058,2.116000,0,1001,2,998,2,1.000000,2.000000,-2.000000,2.000000
164492,2026-07-29T17:00:41.420+08:00,1059,2.118000,0,1000,2,1001,2,0.000000,2.000000,1.000000,2.000000
164493,2026-07-29T17:00:41.420+08:00,1060,2.120000,0,998,2,1004,2,-2.000000,2.000000,4.000000,2.000000
164494,2026-07-29T17:00:41.437+08:00,1061,2.122000,0,997,2,1002,2,-3.000000,2.000000,2.000000,2.000000
164495,2026-07-29T17:00:41.437+08:00,1062,2.124000,0,997,2,998,2,-3.000000,2.000000,-2.000000,2.000000
164496,2026-07-29T17:00:41.437+08:00,1063,2.126000,0,1001,2,995,2,1.000000,2.000000,-5.000000,2.000000
164497,2026-07-29T17:00:41.437+08:00,1064,2.128000,0,1003,2,997,2,3.000000,2.000000,-3.000000,2.000000
164498,2026-07-29T17:00:41.437+08:00,1065,2.130000,0,1001,2,1001,2,1.000000,2.000000,1.000000,2.000000
164499,2026-07-29T17:00:41.437+08:00,1066,2.132000,0,997,2,1003,2,-3.000000,2.000000,3.000000,2.000000
164500,2026-07-29T17:00:41.437+08:00,1067,2.134000,0,996,2,1001,2,-4.000000,2.000000,1.000000,2.000000
164501,2026-07-29T17:00:41.437+08:00,1068,2.136000,0,1000,2,998,2,0.000000,2.000000,-2.000000,2.000000
164502,2026-07-29T17:00:41.437+08:00,1069,2.138000,0,1005,2,996,2,5.000000,2.000000,-4.000000,2.000000
164503,2026-07-29T17:00:41.437+08:00,1070,2.140000,0,1003,2,999,2,3.000000,2.000000,-1.000000,2.000000
164504,2026-07-29T17:00:41.437+08:00,1071,2.142000,0,996,2,1002,2,-4.000000,2.000000,2.000000,2.000000
164505,2026-07-29T17:00:41.439+08:00,1072,2.144000,0,993,2,1002,2,-7.000000,2.000000,2.000000,2.000000
164506,2026-07-29T17:00:41.447+08:00,1073,2.146000,0,998,2,999,2,-2.000000,2.000000,-1.000000,2.000000
164507,2026-07-29T17:00:41.451+08:00,1074,2.148000,0,1004,2,997,2,4.000000,2.000000,-3.000000,2.000000
164508,2026-07-29T17:00:41.451+08:00,1075,2.150000,0,1004,2,999,2,4.000000,2.000000,-1.000000,2.000000
164509,2026-07-29T17:00:41.451+08:00,1076,2.152000,0,999,2,1002,2,-1.000000,2.000000,2.000000,2.000000
164510,2026-07-29T17:00:41.460+08:00,1077,2.154000,0,996,2,1002,2,-4.000000,2.000000,2.000000,2.000000
164511,2026-07-29T17:00:41.460+08:00,1078,2.156000,0,998,2,999,2,-2.000000,2.000000,-1.000000,2.000000
164512,2026-07-29T17:00:41.460+08:00,1079,2.158000,0,1002,2,997,2,2.000000,2.000000,-3.000000,2.000000
164513,2026-07-29T17:00:41.460+08:00,1080,2.160000,0,1002,2,998,2,2.000000,2.000000,-2.000000,2.000000
164514,2026-07-29T17:00:41.466+08:00,1081,2.162000,0,999,2,1000,2,-1.000000,2.000000,0.000000,2.000000
164515,2026-07-29T17:00:41.466+08:00,1082,2.164000,0,997,2,1001,2,-3.000000,2.000000,1.000000,2.000000
164516,2026-07-29T17:00:41.466+08:00,1083,2.166000,0,998,2,1001,2,-2.000000,2.000000,1.000000,2.000000
164517,2026-07-29T17:00:41.478+08:00,1084,2.168000,0,1000,2,1000,2,0.000000,2.000000,0.000000,2.000000
164518,2026-07-29T17:00:41.478+08:00,1085,2.170000,0,1001,2,999,2,1.000000,2.000000,-1.000000,2.000000
164519,2026-07-29T17:00:41.478+08:00,1086,2.172000,0,1000,2,999,2,0.000000,2.000000,-1.000000,2.000000
164520,2026-07-29T17:00:41.478+08:00,1087,2.174000,0,999,2,999,2,-1.000000,2.000000,-1.000000,2.000000
164521,2026-07-29T17:00:41.482+08:00,1088,2.176000,0,999,2,999,2,-1.000000,2.000000,-1.000000,2.000000
164522,2026-07-29T17:00:41.482+08:00,1089,2.178000,0,1000,2,999,2,0.000000,2.000000,-1.000000,2.000000
164523,2026-07-29T17:00:41.482+08:00,1090,2.180000,0,1001,2,1001,2,1.000000,2.000000,1.000000,2.000000
164524,2026-07-29T17:00:41.515+08:00,1091,2.182000,0,1001,2,1001,2,1.000000,2.000000,1.000000,2.000000
164525,2026-07-29T17:00:41.515+08:00,1092,2.184000,0,998,2,1000,2,-2.000000,2.000000,0.000000,2.000000
164526,2026-07-29T17:00:41.515+08:00,1093,2.186000,0,997,2,998,2,-3.000000,2.000000,-2.000000,2.000000
164527,2026-07-29T17:00:41.515+08:00,1094,2.188000,0,998,2,998,2,-2.000000,2.000000,-2.000000,2.000000
164528,2026-07-29T17:00:41.515+08:00,1095,2.190000,0,1001,2,999,2,1.000000,2.000000,-1.000000,2.000000
164529,2026-07-29T17:00:41.515+08:00,1096,2.192000,0,1002,2,1000,2,2.000000,2.000000,0.000000,2.000000
164530,2026-07-29T17:00:41.515+08:00,1097,2.194000,0,1000,2,1001,2,0.000000,2.000000,1.000000,2.000000
164531,2026-07-29T17:00:41.515+08:00,1098,2.196000,0,999,2,1001,2,-1.000000,2.000000,1.000000,2.000000
164532,2026-07-29T17:00:41.515+08:00,1099,2.198000,0,1000,2,999,2,0.000000,2.000000,-1.000000,2.000000
164533,2026-07-29T17:00:41.515+08:00,1100,2.200000,0,1002,2,998,2,2.000000,2.000000,-2.000000,2.000000
164534,2026-07-29T17:00:41.515+08:00,1101,2.202000,0,999,2,999,2,-1.000000,2.000000,-1.000000,2.000000
164535,2026-07-29T17:00:41.515+08:00,1102,2.204000,0,995,2,1000,2,-5.000000,2.000000,0.000000,2.000000
164536,2026-07-29T17:00:41.515+08:00,1103,2.206000,0,996,2,1000,2,-4.000000,2.000000,0.000000,2.000000
164537,2026-07-29T17:00:41.515+08:00,1104,2.208000,0,1002,2,999,2,2.000000,2.000000,-1.000000,2.000000
164538,2026-07-29T17:00:41.515+08:00,1105,2.210000,0,1005,2,999,2,5.000000,2.000000,-1.000000,2.000000
164539,2026-07-29T17:00:41.515+08:00,1106,2.212000,0,1001,2,1001,2,1.000000,2.000000,1.000000,2.000000
164540,2026-07-29T17:00:41.515+08:00,1107,2.214000,0,997,2,1002,2,-3.000000,2.000000,2.000000,2.000000
164541,2026-07-29T17:00:41.515+08:00,1108,2.216000,0,997,2,1000,2,-3.000000,2.000000,0.000000,2.000000
164542,2026-07-29T17:00:41.515+08:00,1109,2.218000,0,1001,2,997,2,1.000000,2.000000,-3.000000,2.000000
164543,2026-07-29T17:00:41.515+08:00,1110,2.220000,0,1001,2,996,2,1.000000,2.000000,-4.000000,2.000000
164544,2026-07-29T17:00:41.523+08:00,1111,2.222000,0,998,2,998,2,-2.000000,2.000000,-2.000000,2.000000
164545,2026-07-29T17:00:41.526+08:00,1112,2.224000,0,996,2,1002,2,-4.000000,2.000000,2.000000,2.000000
164546,2026-07-29T17:00:41.526+08:00,1113,2.226000,0,1000,2,1003,2,0.000000,2.000000,3.000000,2.000000
164547,2026-07-29T17:00:41.526+08:00,1114,2.228000,0,1004,2,1001,2,4.000000,2.000000,1.000000,2.000000
164548,2026-07-29T17:00:41.535+08:00,1115,2.230000,0,1002,2,998,2,2.000000,2.000000,-2.000000,2.000000
164549,2026-07-29T17:00:41.535+08:00,1116,2.232000,0,996,2,998,2,-4.000000,2.000000,-2.000000,2.000000
164550,2026-07-29T17:00:41.535+08:00,1117,2.234000,0,994,2,999,2,-6.000000,2.000000,-1.000000,2.000000
164551,2026-07-29T17:00:41.540+08:00,1118,2.236000,0,999,2,999,2,-1.000000,2.000000,-1.000000,2.000000
164552,2026-07-29T17:00:41.540+08:00,1119,2.238000,0,1005,2,999,2,5.000000,2.000000,-1.000000,2.000000
164553,2026-07-29T17:00:41.540+08:00,1120,2.240000,0,1005,2,1000,2,5.000000,2.000000,0.000000,2.000000
164554,2026-07-29T17:00:41.570+08:00,1121,2.242000,0,999,2,1003,2,-1.000000,2.000000,3.000000,2.000000
164555,2026-07-29T17:00:41.570+08:00,1122,2.244000,0,995,2,1002,2,-5.000000,2.000000,2.000000,2.000000
164556,2026-07-29T17:00:41.570+08:00,1123,2.246000,0,996,2,997,2,-4.000000,2.000000,-3.000000,2.000000
164557,2026-07-29T17:00:41.570+08:00,1124,2.248000,0,999,2,994,2,-1.000000,2.000000,-6.000000,2.000000
164558,2026-07-29T17:00:41.570+08:00,1125,2.250000,0,999,2,998,2,-1.000000,2.000000,-2.000000,2.000000
164559,2026-07-29T17:00:41.592+08:00,1126,2.252000,0,1000,2,1004,2,0.000000,2.000000,4.000000,2.000000
164560,2026-07-29T17:00:41.592+08:00,1127,2.254000,0,1003,2,1005,2,3.000000,2.000000,5.000000,2.000000
164561,2026-07-29T17:00:41.592+08:00,1128,2.256000,0,1005,2,999,2,5.000000,2.000000,-1.000000,2.000000
164562,2026-07-29T17:00:41.592+08:00,1129,2.258000,0,1002,2,994,2,2.000000,2.000000,-6.000000,2.000000
164563,2026-07-29T17:00:41.592+08:00,1130,2.260000,0,993,2,996,2,-7.000000,2.000000,-4.000000,2.000000
164564,2026-07-29T17:00:41.592+08:00,1131,2.262000,0,989,4,1004,2,-11.000000,4.000000,4.000000,2.000000
164565,2026-07-29T17:00:41.592+08:00,1132,2.264000,0,997,2,1006,2,-3.000000,2.000000,6.000000,2.000000
164566,2026-07-29T17:00:41.592+08:00,1133,2.266000,0,1010,4,999,2,10.000000,4.000000,-1.000000,2.000000
164567,2026-07-29T17:00:41.592+08:00,1134,2.268000,0,1013,4,994,2,13.000000,4.000000,-6.000000,2.000000
164568,2026-07-29T17:00:41.592+08:00,1135,2.270000,0,1000,4,996,2,0.000000,4.000000,-4.000000,2.000000
164569,2026-07-29T17:00:41.592+08:00,1136,2.272000,0,986,4,1002,2,-14.000000,4.000000,2.000000,2.000000
164570,2026-07-29T17:00:41.592+08:00,1137,2.274000,0,988,4,1004,2,-12.000000,4.000000,4.000000,2.000000
164571,2026-07-29T17:00:41.592+08:00,1138,2.276000,0,1000,4,1001,2,0.000000,4.000000,1.000000,2.000000
164572,2026-07-29T17:00:41.592+08:00,1139,2.278000,0,1010,4,998,2,10.000000,4.000000,-2.000000,2.000000
164573,2026-07-29T17:00:41.592+08:00,1140,2.280000,0,1010,4,998,2,10.000000,4.000000,-2.000000,2.000000
164574,2026-07-29T17:00:41.592+08:00,1141,2.282000,0,1004,4,998,2,4.000000,4.000000,-2.000000,2.000000
164575,2026-07-29T17:00:41.592+08:00,1142,2.284000,0,995,4,999,2,-5.000000,4.000000,-1.000000,2.000000
164576,2026-07-29T17:00:41.592+08:00,1143,2.286000,0,987,4,999,2,-13.000000,4.000000,-1.000000,2.000000
164577,2026-07-29T17:00:41.592+08:00,1144,2.288000,0,988,4,1001,2,-12.000000,4.000000,1.000000,2.000000
164578,2026-07-29T17:00:41.592+08:00,1145,2.290000,0,1001,4,1001,2,1.000000,4.000000,1.000000,2.000000
164579,2026-07-29T17:00:41.592+08:00,1146,2.292000,0,1013,4,1000,2,13.000000,4.000000,0.000000,2.000000
164580,2026-07-29T17:00:41.592+08:00,1147,2.294000,0,1013,4,1000,2,13.000000,4.000000,0.000000,2.000000
164581,2026-07-29T17:00:41.600+08:00,1148,2.296000,0,1000,4,999,2,0.000000,4.000000,-1.000000,2.000000
164582,2026-07-29T17:00:41.600+08:00,1149,2.298000,0,987,4,997,2,-13.000000,4.000000,-3.000000,2.000000
164583,2026-07-29T17:00:41.600+08:00,1150,2.300000,0,987,4,997,2,-13.000000,4.000000,-3.000000,2.000000
164584,2026-07-29T17:00:41.603+08:00,1151,2.302000,0,998,4,999,2,-2.000000,4.000000,-1.000000,2.000000
164585,2026-07-29T17:00:41.603+08:00,1152,2.304000,0,1009,4,1003,2,9.000000,4.000000,3.000000,2.000000
164586,2026-07-29T17:00:41.603+08:00,1153,2.306000,0,1010,4,1004,2,10.000000,4.000000,4.000000,2.000000
164587,2026-07-29T17:00:41.621+08:00,1154,2.308000,0,1001,4,1000,2,1.000000,4.000000,0.000000,2.000000
164588,2026-07-29T17:00:41.621+08:00,1155,2.310000,0,992,4,995,2,-8.000000,4.000000,-5.000000,2.000000
164589,2026-07-29T17:00:41.628+08:00,1156,2.312000,0,992,4,996,2,-8.000000,4.000000,-4.000000,2.000000
164590,2026-07-29T17:00:41.628+08:00,1157,2.314000,0,998,4,1000,2,-2.000000,4.000000,0.000000,2.000000
164591,2026-07-29T17:00:41.628+08:00,1158,2.316000,0,1004,4,1001,2,4.000000,4.000000,1.000000,2.000000
164592,2026-07-29T17:00:41.628+08:00,1159,2.318000,0,1005,6,999,2,5.000000,6.000000,-1.000000,2.000000
164593,2026-07-29T17:00:41.628+08:00,1160,2.320000,0,1002,4,1000,2,2.000000,4.000000,0.000000,2.000000
164594,2026-07-29T17:00:41.628+08:00,1161,2.322000,0,998,4,1002,2,-2.000000,4.000000,2.000000,2.000000
164595,2026-07-29T17:00:41.628+08:00,1162,2.324000,0,996,4,1002,2,-4.000000,4.000000,2.000000,2.000000
164596,2026-07-29T17:00:41.634+08:00,1163,2.326000,0,996,4,997,2,-4.000000,4.000000,-3.000000,2.000000
164597,2026-07-29T17:00:41.634+08:00,1164,2.328000,0,998,4,994,2,-2.000000,4.000000,-6.000000,2.000000
164598,2026-07-29T17:00:41.634+08:00,1165,2.330000,0,1001,4,997,2,1.000000,4.000000,-3.000000,2.000000
164599,2026-07-29T17:00:41.634+08:00,1166,2.332000,0,1003,4,1002,2,3.000000,4.000000,2.000000,2.000000
164600,2026-07-29T17:00:41.634+08:00,1167,2.334000,0,1002,4,1004,2,2.000000,4.000000,4.000000,2.000000
164601,2026-07-29T17:00:41.634+08:00,1168,2.336000,0,1000,4,1001,2,0.000000,4.000000,1.000000,2.000000
164602,2026-07-29T17:00:41.649+08:00,1169,2.338000,0,998,4,998,2,-2.000000,4.000000,-2.000000,2.000000
164603,2026-07-29T17:00:41.649+08:00,1170,2.340000,0,999,4,997,2,-1.000000,4.000000,-3.000000,2.000000
164604,2026-07-29T17:00:41.668+08:00,1171,2.342000,0,999,4,998,2,-1.000000,4.000000,-2.000000,2.000000
164605,2026-07-29T17:00:41.668+08:00,1172,2.344000,0,998,4,999,2,-2.000000,4.000000,-1.000000,2.000000
