frame_index,host_receive_time,recording_sample_index,recording_elapsed_s,button_label,Channel1_raw,Channel2_raw,Channel 3_raw,Channel 4_raw,Channel1_display,Channel2_display,Channel 3_display,Channel 4_display
135290,2026-07-29T19:56:37.701+08:00,0,0.000000,0,999,2,997,2,-1.000000,2.000000,-3.000000,2.000000
135291,2026-07-29T19:56:37.701+08:00,1,0.002000,0,999,2,1000,2,-1.000000,2.000000,0.000000,2.000000
135292,2026-07-29T19:56:37.701+08:00,2,0.004000,0,999,2,1003,2,-1.000000,2.000000,3.000000,2.000000
135293,2026-07-29T19:56:37.711+08:00,3,0.006000,0,1001,2,1000,2,1.000000,2.000000,0.000000,2.000000
135294,2026-07-29T19:56:37.711+08:00,4,0.008000,0,1002,2,996,2,2.000000,2.000000,-4.000000,2.000000
135295,2026-07-29T19:56:37.711+08:00,5,0.010000,0,1001,2,997,2,1.000000,2.000000,-3.000000,2.000000
135296,2026-07-29T19:56:37.715+08:00,6,0.012000,0,997,2,1002,2,-3.000000,2.000000,2.000000,2.000000
135297,2026-07-29T19:56:37.715+08:00,7,0.014000,0,996,2,1004,2,-4.000000,2.000000,4.000000,2.000000
135298,2026-07-29T19:56:37.715+08:00,8,0.016000,0,998,2,1000,2,-2.000000,2.000000,0.000000,2.000000
135299,2026-07-29T19:56:37.721+08:00,9,0.018000,0,1003,2,995,2,3.000000,2.000000,-5.000000,2.000000
135300,2026-07-29T19:56:37.721+08:00,10,0.020000,0,1003,2,996,2,3.000000,2.000000,-4.000000,2.000000
135301,2026-07-29T19:56:37.721+08:00,11,0.022000,0,999,2,1001,2,-1.000000,2.000000,1.000000,2.000000
135302,2026-07-29T19:56:37.721+08:00,12,0.024000,0,996,2,1003,2,-4.000000,2.000000,3.000000,2.000000
135303,2026-07-29T19:56:37.721+08:00,13,0.026000,0,998,2,1001,2,-2.000000,2.000000,1.000000,2.000000
135304,2026-07-29T19:56:37.737+08:00,14,0.028000,0,1002,2,997,2,2.000000,2.000000,-3.000000,2.000000
135305,2026-07-29T19:56:37.737+08:00,15,0.030000,0,1002,2,998,2,2.000000,2.000000,-2.000000,2.000000
135306,2026-07-29T19:56:37.737+08:00,16,0.032000,0,998,2,1001,2,-2.000000,2.000000,1.000000,2.000000
135307,2026-07-29T19:56:37.737+08:00,17,0.034000,0,996,2,1001,2,-4.000000,2.000000,1.000000,2.000000
135308,2026-07-29T19:56:37.737+08:00,18,0.036000,0,999,2,998,2,-1.000000,2.000000,-2.000000,2.000000
135309,2026-07-29T19:56:37.737+08:00,19,0.038000,0,1003,2,998,2,3.000000,2.000000,-2.000000,2.000000
135310,2026-07-29T19:56:37.737+08:00,20,0.040000,0,1003,2,1000,2,3.000000,2.000000,0.000000,2.000000
135311,2026-07-29T19:56:37.751+08:00,21,0.042000,0,999,2,1002,2,-1.000000,2.000000,2.000000,2.000000
135312,2026-07-29T19:56:37.751+08:00,22,0.044000,0,996,2,1000,2,-4.000000,2.000000,0.000000,2.000000
135313,2026-07-29T19:56:37.751+08:00,23,0.046000,0,998,2,998,2,-2.000000,2.000000,-2.000000,2.000000
135314,2026-07-29T19:56:37.751+08:00,24,0.048000,0,1000,2,998,2,0.000000,2.000000,-2.000000,2.000000
135315,2026-07-29T19:56:37.751+08:00,25,0.050000,0,1001,2,999,2,1.000000,2.000000,-1.000000,2.000000
135316,2026-07-29T19:56:37.751+08:00,26,0.052000,0,1001,2,1000,2,1.000000,2.000000,0.000000,2.000000
135317,2026-07-29T19:56:37.751+08:00,27,0.054000,0,1000,2,1000,2,0.000000,2.000000,0.000000,2.000000
135318,2026-07-29T19:56:37.751+08:00,28,0.056000,0,1000,2,1000,2,0.000000,2.000000,0.000000,2.000000
135319,2026-07-29T19:56:37.758+08:00,29,0.058000,0,998,2,999,2,-2.000000,2.000000,-1.000000,2.000000
135320,2026-07-29T19:56:37.760+08:00,30,0.060000,0,997,2,1000,2,-3.000000,2.000000,0.000000,2.000000
135321,2026-07-29T19:56:37.760+08:00,31,0.062000,0,999,2,999,2,-1.000000,2.000000,-1.000000,2.000000
135322,2026-07-29T19:56:37.760+08:00,32,0.064000,0,1002,2,999,2,2.000000,2.000000,-1.000000,2.000000
135323,2026-07-29T19:56:37.770+08:00,33,0.066000,0,1002,2,999,2,2.000000,2.000000,-1.000000,2.000000
135324,2026-07-29T19:56:37.770+08:00,34,0.068000,0,999,2,1000,2,-1.000000,2.000000,0.000000,2.000000
135325,2026-07-29T19:56:37.770+08:00,35,0.070000,0,997,2,1000,2,-3.000000,2.000000,0.000000,2.000000
135326,2026-07-29T19:56:37.774+08:00,36,0.072000,0,998,2,1000,2,-2.000000,2.000000,0.000000,2.000000
135327,2026-07-29T19:56:37.782+08:00,37,0.074000,0,1001,2,999,2,1.000000,2.000000,-1.000000,2.000000
135328,2026-07-29T19:56:37.782+08:00,38,0.076000,0,1002,2,999,2,2.000000,2.000000,-1.000000,2.000000
135329,2026-07-29T19:56:37.782+08:00,39,0.078000,0,999,2,999,2,-1.000000,2.000000,-1.000000,2.000000
135330,2026-07-29T19:56:37.782+08:00,40,0.080000,0,996,2,999,2,-4.000000,2.000000,-1.000000,2.000000
135331,2026-07-29T19:56:37.782+08:00,41,0.082000,0,997,2,999,2,-3.000000,2.000000,-1.000000,2.000000
135332,2026-07-29T19:56:37.782+08:00,42,0.084000,0,1003,2,1000,2,3.000000,2.000000,0.000000,2.000000
135333,2026-07-29T19:56:37.785+08:00,43,0.086000,0,1005,2,1001,2,5.000000,2.000000,1.000000,2.000000
135334,2026-07-29T19:56:37.809+08:00,44,0.088000,0,999,2,1000,2,-1.000000,2.000000,0.000000,2.000000
135335,2026-07-29T19:56:37.809+08:00,45,0.090000,0,994,2,998,2,-6.000000,2.000000,-2.000000,2.000000
135336,2026-07-29T19:56:37.809+08:00,46,0.092000,0,995,2,997,2,-5.000000,2.000000,-3.000000,2.000000
135337,2026-07-29T19:56:37.809+08:00,47,0.094000,0,1002,2,1000,2,2.000000,2.000000,0.000000,2.000000
135338,2026-07-29T19:56:37.809+08:00,48,0.096000,0,1005,2,1003,2,5.000000,2.000000,3.000000,2.000000
135339,2026-07-29T19:56:37.809+08:00,49,0.098000,0,1001,2,1000,2,1.000000,2.000000,0.000000,2.000000
135340,2026-07-29T19:56:37.809+08:00,50,0.100000,0,995,2,995,2,-5.000000,2.000000,-5.000000,2.000000
135341,2026-07-29T19:56:37.810+08:00,51,0.102000,0,996,2,995,2,-4.000000,2.000000,-5.000000,2.000000
135342,2026-07-29T19:56:37.810+08:00,52,0.104000,0,1002,2,1001,2,2.000000,2.000000,1.000000,2.000000
135343,2026-07-29T19:56:37.810+08:00,53,0.106000,0,1004,2,1007,2,4.000000,2.000000,7.000000,2.000000
135344,2026-07-29T19:56:37.810+08:00,54,0.108000,0,1000,2,1003,2,0.000000,2.000000,3.000000,2.000000
135345,2026-07-29T19:56:37.810+08:00,55,0.110000,0,995,2,995,2,-5.000000,2.000000,-5.000000,2.000000
135346,2026-07-29T19:56:37.810+08:00,56,0.112000,0,996,2,992,2,-4.000000,2.000000,-8.000000,2.000000
135347,2026-07-29T19:56:37.810+08:00,57,0.114000,0,1001,2,997,2,1.000000,2.000000,-3.000000,2.000000
135348,2026-07-29T19:56:37.810+08:00,58,0.116000,0,1004,2,1004,2,4.000000,2.000000,4.000000,2.000000
135349,2026-07-29T19:56:37.818+08:00,59,0.118000,0,1001,2,1006,2,1.000000,2.000000,6.000000,2.000000
135350,2026-07-29T19:56:37.823+08:00,60,0.120000,0,997,2,1001,2,-3.000000,2.000000,1.000000,2.000000
135351,2026-07-29T19:56:37.823+08:00,61,0.122000,0,996,2,997,2,-4.000000,2.000000,-3.000000,2.000000
135352,2026-07-29T19:56:37.823+08:00,62,0.124000,0,999,2,995,2,-1.000000,2.000000,-5.000000,2.000000
135353,2026-07-29T19:56:37.829+08:00,63,0.126000,0,1001,2,997,2,1.000000,2.000000,-3.000000,2.000000
135354,2026-07-29T19:56:37.829+08:00,64,0.128000,0,1001,2,1000,2,1.000000,2.000000,0.000000,2.000000
135355,2026-07-29T19:56:37.829+08:00,65,0.130000,0,999,2,1003,2,-1.000000,2.000000,3.000000,2.000000
135356,2026-07-29T19:56:37.837+08:00,66,0.132000,0,1000,2,1002,2,0.000000,2.000000,2.000000,2.000000
135357,2026-07-29T19:56:37.837+08:00,67,0.134000,0,1000,2,999,2,0.000000,2.000000,-1.000000,2.000000
135358,2026-07-29T19:56:37.837+08:00,68,0.136000,0,999,2,996,2,-1.000000,2.000000,-4.000000,2.000000
135359,2026-07-29T19:56:37.837+08:00,69,0.138000,0,998,2,998,2,-2.000000,2.000000,-2.000000,2.000000
135360,2026-07-29T19:56:37.837+08:00,70,0.140000,0,999,2,1002,2,-1.000000,2.000000,2.000000,2.000000
135361,2026-07-29T19:56:37.837+08:00,71,0.142000,0,1001,2,1001,2,1.000000,2.000000,1.000000,2.000000
135362,2026-07-29T19:56:37.845+08:00,72,0.144000,0,1000,2,998,2,0.000000,2.000000,-2.000000,2.000000
135363,2026-07-29T19:56:37.845+08:00,73,0.146000,0,998,2,997,2,-2.000000,2.000000,-3.000000,2.000000
135364,2026-07-29T19:56:37.857+08:00,74,0.148000,0,1000,2,1000,2,0.000000,2.000000,0.000000,2.000000
135365,2026-07-29T19:56:37.857+08:00,75,0.150000,0,1002,2,1002,2,2.000000,2.000000,2.000000,2.000000
135366,2026-07-29T19:56:37.857+08:00,76,0.152000,0,1001,2,1001,2,1.000000,2.000000,1.000000,2.000000
135367,2026-07-29T19:56:37.857+08:00,77,0.154000,0,998,2,999,2,-2.000000,2.000000,-1.000000,2.000000
135368,2026-07-29T19:56:37.857+08:00,78,0.156000,0,996,2,998,2,-4.000000,2.000000,-2.000000,2.000000
135369,2026-07-29T19:56:37.857+08:00,79,0.158000,0,999,2,1000,2,-1.000000,2.000000,0.000000,2.000000
135370,2026-07-29T19:56:37.857+08:00,80,0.160000,0,1002,2,999,2,2.000000,2.000000,-1.000000,2.000000
135371,2026-07-29T19:56:37.872+08:00,81,0.162000,0,1003,2,997,2,3.000000,2.000000,-3.000000,2.000000
135372,2026-07-29T19:56:37.872+08:00,82,0.164000,0,999,2,999,2,-1.000000,2.000000,-1.000000,2.000000
135373,2026-07-29T19:56:37.872+08:00,83,0.166000,0,997,2,1004,2,-3.000000,2.000000,4.000000,2.000000
135374,2026-07-29T19:56:37.872+08:00,84,0.168000,0,998,2,1005,2,-2.000000,2.000000,5.000000,2.000000
135375,2026-07-29T19:56:37.872+08:00,85,0.170000,0,1000,2,999,2,0.000000,2.000000,-1.000000,2.000000
135376,2026-07-29T19:56:37.872+08:00,86,0.172000,0,1000,2,993,2,0.000000,2.000000,-7.000000,2.000000
135377,2026-07-29T19:56:37.872+08:00,87,0.174000,0,999,2,994,2,-1.000000,2.000000,-6.000000,2.000000
135378,2026-07-29T19:56:37.872+08:00,88,0.176000,0,999,2,1001,2,-1.000000,2.000000,1.000000,2.000000
135379,2026-07-29T19:56:37.880+08:00,89,0.178000,0,1001,2,1006,2,1.000000,2.000000,6.000000,2.000000
135380,2026-07-29T19:56:37.880+08:00,90,0.180000,0,1001,2,1003,2,1.000000,2.000000,3.000000,2.000000
135381,2026-07-29T19:56:37.880+08:00,91,0.182000,0,999,2,998,2,-1.000000,2.000000,-2.000000,2.000000
135382,2026-07-29T19:56:37.882+08:00,92,0.184000,0,998,2,996,2,-2.000000,2.000000,-4.000000,2.000000
135383,2026-07-29T19:56:37.882+08:00,93,0.186000,0,999,2,998,2,-1.000000,2.000000,-2.000000,2.000000
135384,2026-07-29T19:56:37.882+08:00,94,0.188000,0,999,2,999,2,-1.000000,2.000000,-1.000000,2.000000
135385,2026-07-29T19:56:37.884+08:00,95,0.190000,0,1000,2,999,2,0.000000,2.000000,-1.000000,2.000000
135386,2026-07-29T19:56:37.898+08:00,96,0.192000,0,1000,2,1000,2,0.000000,2.000000,0.000000,2.000000
135387,2026-07-29T19:56:37.898+08:00,97,0.194000,0,1001,2,1004,2,1.000000,2.000000,4.000000,2.000000
135388,2026-07-29T19:56:37.898+08:00,98,0.196000,0,1000,2,1003,2,0.000000,2.000000,3.000000,2.000000
135389,2026-07-29T19:56:37.898+08:00,99,0.198000,0,1000,2,997,2,0.000000,2.000000,-3.000000,2.000000
135390,2026-07-29T19:56:37.898+08:00,100,0.200000,0,998,2,993,2,-2.000000,2.000000,-7.000000,2.000000
135391,2026-07-29T19:56:37.898+08:00,101,0.202000,0,997,2,997,2,-3.000000,2.000000,-3.000000,2.000000
135392,2026-07-29T19:56:37.909+08:00,102,0.204000,0,998,2,1003,2,-2.000000,2.000000,3.000000,2.000000
135393,2026-07-29T19:56:37.909+08:00,103,0.206000,0,1002,2,1004,2,2.000000,2.000000,4.000000,2.000000
135394,2026-07-29T19:56:37.933+08:00,104,0.208000,0,1004,2,1000,2,4.000000,2.000000,0.000000,2.000000
135395,2026-07-29T19:56:37.934+08:00,105,0.210000,0,1000,2,997,2,0.000000,2.000000,-3.000000,2.000000
135396,2026-07-29T19:56:37.934+08:00,106,0.212000,0,996,2,998,2,-4.000000,2.000000,-2.000000,2.000000
135397,2026-07-29T19:56:37.934+08:00,107,0.214000,0,997,2,1000,2,-3.000000,2.000000,0.000000,2.000000
135398,2026-07-29T19:56:37.934+08:00,108,0.216000,0,1002,2,998,2,2.000000,2.000000,-2.000000,2.000000
135399,2026-07-29T19:56:37.934+08:00,109,0.218000,0,1002,2,997,2,2.000000,2.000000,-3.000000,2.000000
135400,2026-07-29T19:56:37.934+08:00,110,0.220000,0,997,2,1000,2,-3.000000,2.000000,0.000000,2.000000
135401,2026-07-29T19:56:37.934+08:00,111,0.222000,0,994,2,1005,2,-6.000000,2.000000,5.000000,2.000000
135402,2026-07-29T19:56:37.934+08:00,112,0.224000,0,1000,2,1004,2,0.000000,2.000000,4.000000,2.000000
135403,2026-07-29T19:56:37.934+08:00,113,0.226000,0,1007,2,996,2,7.000000,2.000000,-4.000000,2.000000
135404,2026-07-29T19:56:37.934+08:00,114,0.228000,0,1005,2,990,2,5.000000,2.000000,-10.000000,2.000000
135405,2026-07-29T19:56:37.934+08:00,115,0.230000,0,996,2,996,2,-4.000000,2.000000,-4.000000,2.000000
135406,2026-07-29T19:56:37.934+08:00,116,0.232000,0,990,2,1006,2,-10.000000,2.000000,6.000000,2.000000
135407,2026-07-29T19:56:37.934+08:00,117,0.234000,0,996,2,1009,2,-4.000000,2.000000,9.000000,2.000000
135408,2026-07-29T19:56:37.934+08:00,118,0.236000,0,1006,2,1001,2,6.000000,2.000000,1.000000,2.000000
135409,2026-07-29T19:56:37.939+08:00,119,0.238000,0,1007,2,993,2,7.000000,2.000000,-7.000000,2.000000
135410,2026-07-29T19:56:37.939+08:00,120,0.240000,0,999,2,993,2,-1.000000,2.000000,-7.000000,2.000000
135411,2026-07-29T19:56:37.939+08:00,121,0.242000,0,994,2,999,2,-6.000000,2.000000,-1.000000,2.000000
135412,2026-07-29T19:56:37.943+08:00,122,0.244000,0,998,2,1004,2,-2.000000,2.000000,4.000000,2.000000
135413,2026-07-29T19:56:37.943+08:00,123,0.246000,0,1003,2,1004,2,3.000000,2.000000,4.000000,2.000000
135414,2026-07-29T19:56:37.943+08:00,124,0.248000,0,1001,2,1001,2,1.000000,2.000000,1.000000,2.000000
135415,2026-07-29T19:56:37.944+08:00,125,0.250000,0,996,2,998,2,-4.000000,2.000000,-2.000000,2.000000
135416,2026-07-29T19:56:37.956+08:00,126,0.252000,0,996,2,997,2,-4.000000,2.000000,-3.000000,2.000000
135417,2026-07-29T19:56:37.956+08:00,127,0.254000,0,1001,2,997,2,1.000000,2.000000,-3.000000,2.000000
135418,2026-07-29T19:56:37.956+08:00,128,0.256000,0,1005,2,999,2,5.000000,2.000000,-1.000000,2.000000
135419,2026-07-29T19:56:37.959+08:00,129,0.258000,0,1002,2,1002,2,2.000000,2.000000,2.000000,2.000000
135420,2026-07-29T19:56:37.959+08:00,130,0.260000,0,996,2,1003,2,-4.000000,2.000000,3.000000,2.000000
135421,2026-07-29T19:56:37.959+08:00,131,0.262000,0,995,2,1001,2,-5.000000,2.000000,1.000000,2.000000
135422,2026-07-29T19:56:37.966+08:00,132,0.264000,0,998,2,998,2,-2.000000,2.000000,-2.000000,2.000000
135423,2026-07-29T19:56:37.966+08:00,133,0.266000,0,1003,2,997,2,3.000000,2.000000,-3.000000,2.000000
135424,2026-07-29T19:56:37.970+08:00,134,0.268000,0,1003,2,999,2,3.000000,2.000000,-1.000000,2.000000
135425,2026-07-29T19:56:37.975+08:00,135,0.270000,0,1001,2,1001,2,1.000000,2.000000,1.000000,2.000000
135426,2026-07-29T19:56:37.975+08:00,136,0.272000,0,998,2,1001,2,-2.000000,2.000000,1.000000,2.000000
135427,2026-07-29T19:56:37.975+08:00,137,0.274000,0,997,2,1000,2,-3.000000,2.000000,0.000000,2.000000
135428,2026-07-29T19:56:37.975+08:00,138,0.276000,0,998,2,1000,2,-2.000000,2.000000,0.000000,2.000000
135429,2026-07-29T19:56:37.975+08:00,139,0.278000,0,999,2,999,2,-1.000000,2.000000,-1.000000,2.000000
135430,2026-07-29T19:56:37.975+08:00,140,0.280000,0,1000,2,999,2,0.000000,2.000000,-1.000000,2.000000
135431,2026-07-29T19:56:38.003+08:00,141,0.282000,0,1001,2,999,2,1.000000,2.000000,-1.000000,2.000000
135432,2026-07-29T19:56:38.003+08:00,142,0.284000,0,1001,2,999,2,1.000000,2.000000,-1.000000,2.000000
135433,2026-07-29T19:56:38.003+08:00,143,0.286000,0,1000,2,1001,2,0.000000,2.000000,1.000000,2.000000
135434,2026-07-29T19:56:38.003+08:00,144,0.288000,0,998,2,1002,2,-2.000000,2.000000,2.000000,2.000000
135435,2026-07-29T19:56:38.003+08:00,145,0.290000,0,998,2,1000,2,-2.000000,2.000000,0.000000,2.000000
135436,2026-07-29T19:56:38.003+08:00,146,0.292000,0,998,2,997,2,-2.000000,2.000000,-3.000000,2.000000
135437,2026-07-29T19:56:38.003+08:00,147,0.294000,0,999,2,997,2,-1.000000,2.000000,-3.000000,2.000000
135438,2026-07-29T19:56:38.003+08:00,148,0.296000,0,1001,2,1000,2,1.000000,2.000000,0.000000,2.000000
135439,2026-07-29T19:56:38.003+08:00,149,0.298000,0,1001,2,1002,2,1.000000,2.000000,2.000000,2.000000
135440,2026-07-29T19:56:38.003+08:00,150,0.300000,0,1000,2,1001,2,0.000000,2.000000,1.000000,2.000000
135441,2026-07-29T19:56:38.003+08:00,151,0.302000,0,999,2,998,2,-1.000000,2.000000,-2.000000,2.000000
135442,2026-07-29T19:56:38.003+08:00,152,0.304000,0,999,2,998,2,-1.000000,2.000000,-2.000000,2.000000
135443,2026-07-29T19:56:38.004+08:00,153,0.306000,0,999,2,1000,2,-1.000000,2.000000,0.000000,2.000000
135444,2026-07-29T19:56:38.004+08:00,154,0.308000,0,998,2,1001,2,-2.000000,2.000000,1.000000,2.000000
135445,2026-07-29T19:56:38.004+08:00,155,0.310000,0,997,2,1000,2,-3.000000,2.000000,0.000000,2.000000
135446,2026-07-29T19:56:38.016+08:00,156,0.312000,0,1000,2,999,2,0.000000,2.000000,-1.000000,2.000000
135447,2026-07-29T19:56:38.016+08:00,157,0.314000,0,1005,2,999,2,5.000000,2.000000,-1.000000,2.000000
135448,2026-07-29T19:56:38.016+08:00,158,0.316000,0,1003,2,998,2,3.000000,2.000000,-2.000000,2.000000
135449,2026-07-29T19:56:38.027+08:00,159,0.318000,0,996,2,999,2,-4.000000,2.000000,-1.000000,2.000000
135450,2026-07-29T19:56:38.027+08:00,160,0.320000,0,992,2,1001,2,-8.000000,2.000000,1.000000,2.000000
135451,2026-07-29T19:56:38.027+08:00,161,0.322000,0,996,2,1002,2,-4.000000,2.000000,2.000000,2.000000
135452,2026-07-29T19:56:38.027+08:00,162,0.324000,0,1004,2,1000,2,4.000000,2.000000,0.000000,2.000000
135453,2026-07-29T19:56:38.027+08:00,163,0.326000,0,1006,2,996,2,6.000000,2.000000,-4.000000,2.000000
135454,2026-07-29T19:56:38.039+08:00,164,0.328000,0,1002,2,997,2,2.000000,2.000000,-3.000000,2.000000
135455,2026-07-29T19:56:38.039+08:00,165,0.330000,0,996,2,1000,2,-4.000000,2.000000,0.000000,2.000000
135456,2026-07-29T19:56:38.039+08:00,166,0.332000,0,995,2,1003,2,-5.000000,2.000000,3.000000,2.000000
135457,2026-07-29T19:56:38.039+08:00,167,0.334000,0,998,2,1002,2,-2.000000,2.000000,2.000000,2.000000
135458,2026-07-29T19:56:38.039+08:00,168,0.336000,0,1002,2,999,2,2.000000,2.000000,-1.000000,2.000000
135459,2026-07-29T19:56:38.039+08:00,169,0.338000,0,1003,2,997,2,3.000000,2.000000,-3.000000,2.000000
135460,2026-07-29T19:56:38.058+08:00,170,0.340000,0,1002,2,999,2,2.000000,2.000000,-1.000000,2.000000
135461,2026-07-29T19:56:38.058+08:00,171,0.342000,0,998,2,1000,2,-2.000000,2.000000,0.000000,2.000000
135462,2026-07-29T19:56:38.058+08:00,172,0.344000,0,996,2,999,2,-4.000000,2.000000,-1.000000,2.000000
135463,2026-07-29T19:56:38.058+08:00,173,0.346000,0,997,2,998,2,-3.000000,2.000000,-2.000000,2.000000
135464,2026-07-29T19:56:38.058+08:00,174,0.348000,0,1001,2,1001,2,1.000000,2.000000,1.000000,2.000000
135465,2026-07-29T19:56:38.058+08:00,175,0.350000,0,1003,2,1002,2,3.000000,2.000000,2.000000,2.000000
135466,2026-07-29T19:56:38.058+08:00,176,0.352000,0,1001,2,999,2,1.000000,2.000000,-1.000000,2.000000
135467,2026-07-29T19:56:38.058+08:00,177,0.354000,0,997,2,996,2,-3.000000,2.000000,-4.000000,2.000000
135468,2026-07-29T19:56:38.058+08:00,178,0.356000,0,997,2,997,2,-3.000000,2.000000,-3.000000,2.000000
135469,2026-07-29T19:56:38.058+08:00,179,0.358000,0,999,2,1002,2,-1.000000,2.000000,2.000000,2.000000
135470,2026-07-29T19:56:38.060+08:00,180,0.360000,0,1001,2,1003,2,1.000000,2.000000,3.000000,2.000000
135471,2026-07-29T19:56:38.060+08:00,181,0.362000,0,1000,2,999,2,0.000000,2.000000,-1.000000,2.000000
135472,2026-07-29T19:56:38.060+08:00,182,0.364000,0,1000,2,996,2,0.000000,2.000000,-4.000000,2.000000
135473,2026-07-29T19:56:38.065+08:00,183,0.366000,0,1001,2,997,2,1.000000,2.000000,-3.000000,2.000000
135474,2026-07-29T19:56:38.065+08:00,184,0.368000,0,1000,2,1002,2,0.000000,2.000000,2.000000,2.000000
135475,2026-07-29T19:56:38.065+08:00,185,0.370000,0,998,2,1003,2,-2.000000,2.000000,3.000000,2.000000
135476,2026-07-29T19:56:38.080+08:00,186,0.372000,0,996,2,1000,2,-4.000000,2.000000,0.000000,2.000000
135477,2026-07-29T19:56:38.080+08:00,187,0.374000,0,999,2,998,2,-1.000000,2.000000,-2.000000,2.000000
135478,2026-07-29T19:56:38.080+08:00,188,0.376000,0,1003,2,999,2,3.000000,2.000000,-1.000000,2.000000
135479,2026-07-29T19:56:38.080+08:00,189,0.378000,0,1003,2,999,2,3.000000,2.000000,-1.000000,2.000000
135480,2026-07-29T19:56:38.080+08:00,190,0.380000,0,1000,2,998,2,0.000000,2.000000,-2.000000,2.000000
135481,2026-07-29T19:56:38.080+08:00,191,0.382000,0,997,2,998,2,-3.000000,2.000000,-2.000000,2.000000
135482,2026-07-29T19:56:38.090+08:00,192,0.384000,0,998,2,1001,2,-2.000000,2.000000,1.000000,2.000000
135483,2026-07-29T19:56:38.090+08:00,193,0.386000,0,1000,2,1003,2,0.000000,2.000000,3.000000,2.000000
135484,2026-07-29T19:56:38.090+08:00,194,0.388000,0,1000,2,1000,2,0.000000,2.000000,0.000000,2.000000
135485,2026-07-29T19:56:38.090+08:00,195,0.390000,0,999,2,997,2,-1.000000,2.000000,-3.000000,2.000000
135486,2026-07-29T19:56:38.090+08:00,196,0.392000,0,1000,2,996,2,0.000000,2.000000,-4.000000,2.000000
135487,2026-07-29T19:56:38.105+08:00,197,0.394000,0,1002,2,1000,2,2.000000,2.000000,0.000000,2.000000
135488,2026-07-29T19:56:38.105+08:00,198,0.396000,0,1001,2,1002,2,1.000000,2.000000,2.000000,2.000000
135489,2026-07-29T19:56:38.105+08:00,199,0.398000,0,997,2,1001,2,-3.000000,2.000000,1.000000,2.000000
135490,2026-07-29T19:56:38.105+08:00,200,0.400000,0,996,2,999,2,-4.000000,2.000000,-1.000000,2.000000
135491,2026-07-29T19:56:38.117+08:00,201,0.402000,0,998,2,999,2,-2.000000,2.000000,-1.000000,2.000000
135492,2026-07-29T19:56:38.117+08:00,202,0.404000,0,1001,2,1000,2,1.000000,2.000000,0.000000,2.000000
135493,2026-07-29T19:56:38.117+08:00,203,0.406000,0,1002,2,1001,2,2.000000,2.000000,1.000000,2.000000
135494,2026-07-29T19:56:38.117+08:00,204,0.408000,0,1001,2,998,2,1.000000,2.000000,-2.000000,2.000000
135495,2026-07-29T19:56:38.117+08:00,205,0.410000,0,998,2,996,2,-2.000000,2.000000,-4.000000,2.000000
135496,2026-07-29T19:56:38.117+08:00,206,0.412000,0,997,2,998,2,-3.000000,2.000000,-2.000000,2.000000
135497,2026-07-29T19:56:38.117+08:00,207,0.414000,0,999,2,1003,2,-1.000000,2.000000,3.000000,2.000000
135498,2026-07-29T19:56:38.117+08:00,208,0.416000,0,1001,2,1005,2,1.000000,2.000000,5.000000,2.000000
135499,2026-07-29T19:56:38.118+08:00,209,0.418000,0,1000,2,1001,2,0.000000,2.000000,1.000000,2.000000
135500,2026-07-29T19:56:38.121+08:00,210,0.420000,0,997,2,994,2,-3.000000,2.000000,-6.000000,2.000000
135501,2026-07-29T19:56:38.121+08:00,211,0.422000,0,998,2,993,2,-2.000000,2.000000,-7.000000,2.000000
135502,2026-07-29T19:56:38.121+08:00,212,0.424000,0,1003,2,999,2,3.000000,2.000000,-1.000000,2.000000
135503,2026-07-29T19:56:38.125+08:00,213,0.426000,0,1004,2,1006,2,4.000000,2.000000,6.000000,2.000000
135504,2026-07-29T19:56:38.125+08:00,214,0.428000,0,999,2,1005,2,-1.000000,2.000000,5.000000,2.000000
135505,2026-07-29T19:56:38.125+08:00,215,0.430000,0,993,2,999,2,-7.000000,2.000000,-1.000000,2.000000
135506,2026-07-29T19:56:38.141+08:00,216,0.432000,0,995,2,995,2,-5.000000,2.000000,-5.000000,2.000000
135507,2026-07-29T19:56:38.141+08:00,217,0.434000,0,1002,2,996,2,2.000000,2.000000,-4.000000,2.000000
135508,2026-07-29T19:56:38.141+08:00,218,0.436000,0,1007,2,1000,2,7.000000,2.000000,0.000000,2.000000
135509,2026-07-29T19:56:38.141+08:00,219,0.438000,0,1004,2,1003,2,4.000000,2.000000,3.000000,2.000000
135510,2026-07-29T19:56:38.141+08:00,220,0.440000,0,997,2,1003,2,-3.000000,2.000000,3.000000,2.000000
135511,2026-07-29T19:56:38.141+08:00,221,0.442000,0,994,2,999,2,-6.000000,2.000000,-1.000000,2.000000
135512,2026-07-29T19:56:38.141+08:00,222,0.444000,0,997,4,995,2,-3.000000,4.000000,-5.000000,2.000000
135513,2026-07-29T19:56:38.141+08:00,223,0.446000,0,1001,4,997,2,1.000000,4.000000,-3.000000,2.000000
135514,2026-07-29T19:56:38.173+08:00,224,0.448000,0,1002,4,1003,2,2.000000,4.000000,3.000000,2.000000
135515,2026-07-29T19:56:38.173+08:00,225,0.450000,0,1000,4,1003,2,0.000000,4.000000,3.000000,2.000000
135516,2026-07-29T19:56:38.173+08:00,226,0.452000,0,1000,4,999,2,0.000000,4.000000,-1.000000,2.000000
135517,2026-07-29T19:56:38.173+08:00,227,0.454000,0,1001,4,995,2,1.000000,4.000000,-5.000000,2.000000
135518,2026-07-29T19:56:38.173+08:00,228,0.456000,0,999,4,998,2,-1.000000,4.000000,-2.000000,2.000000
135519,2026-07-29T19:56:38.173+08:00,229,0.458000,0,996,4,1002,2,-4.000000,4.000000,2.000000,2.000000
135520,2026-07-29T19:56:38.175+08:00,230,0.460000,0,996,4,1002,2,-4.000000,4.000000,2.000000,2.000000
135521,2026-07-29T19:56:38.175+08:00,231,0.462000,0,1000,4,999,2,0.000000,4.000000,-1.000000,2.000000
135522,2026-07-29T19:56:38.175+08:00,232,0.464000,0,1004,4,998,2,4.000000,4.000000,-2.000000,2.000000
135523,2026-07-29T19:56:38.175+08:00,233,0.466000,0,1003,4,999,2,3.000000,4.000000,-1.000000,2.000000
135524,2026-07-29T19:56:38.175+08:00,234,0.468000,0,999,4,1000,2,-1.000000,4.000000,0.000000,2.000000
135525,2026-07-29T19:56:38.175+08:00,235,0.470000,0,996,4,999,2,-4.000000,4.000000,-1.000000,2.000000
135526,2026-07-29T19:56:38.175+08:00,236,0.472000,0,997,4,998,2,-3.000000,4.000000,-2.000000,2.000000
135527,2026-07-29T19:56:38.175+08:00,237,0.474000,0,1000,4,1000,2,0.000000,4.000000,0.000000,2.000000
135528,2026-07-29T19:56:38.175+08:00,238,0.476000,0,1002,4,1001,2,2.000000,4.000000,1.000000,2.000000
135529,2026-07-29T19:56:38.180+08:00,239,0.478000,0,1000,2,1001,2,0.000000,2.000000,1.000000,2.000000
135530,2026-07-29T19:56:38.180+08:00,240,0.480000,0,999,2,999,2,-1.000000,2.000000,-1.000000,2.000000
135531,2026-07-29T19:56:38.180+08:00,241,0.482000,0,999,2,997,2,-1.000000,2.000000,-3.000000,2.000000
135532,2026-07-29T19:56:38.184+08:00,242,0.484000,0,1000,2,998,2,0.000000,2.000000,-2.000000,2.000000
135533,2026-07-29T19:56:38.184+08:00,243,0.486000,0,999,2,1000,2,-1.000000,2.000000,0.000000,2.000000
135534,2026-07-29T19:56:38.184+08:00,244,0.488000,0,998,2,1001,2,-2.000000,2.000000,1.000000,2.000000
135535,2026-07-29T19:56:38.185+08:00,245,0.490000,0,1000,2,1000,2,0.000000,2.000000,0.000000,2.000000
135536,2026-07-29T19:56:38.198+08:00,246,0.492000,0,1001,2,999,2,1.000000,2.000000,-1.000000,2.000000
135537,2026-07-29T19:56:38.198+08:00,247,0.494000,0,1001,2,999,2,1.000000,2.000000,-1.000000,2.000000
135538,2026-07-29T19:56:38.198+08:00,248,0.496000,0,999,2,1000,2,-1.000000,2.000000,0.000000,2.000000
135539,2026-07-29T19:56:38.198+08:00,249,0.498000,0,998,2,1000,2,-2.000000,2.000000,0.000000,2.000000
135540,2026-07-29T19:56:38.198+08:00,250,0.500000,0,998,2,998,2,-2.000000,2.000000,-2.000000,2.000000
135541,2026-07-29T19:56:38.198+08:00,251,0.502000,0,1000,2,997,2,0.000000,2.000000,-3.000000,2.000000
135542,2026-07-29T19:56:38.208+08:00,252,0.504000,0,1000,2,999,2,0.000000,2.000000,-1.000000,2.000000
135543,2026-07-29T19:56:38.208+08:00,253,0.506000,0,1001,2,1003,2,1.000000,2.000000,3.000000,2.000000
135544,2026-07-29T19:56:38.219+08:00,254,0.508000,0,1001,2,1003,2,1.000000,2.000000,3.000000,2.000000
135545,2026-07-29T19:56:38.219+08:00,255,0.510000,0,1001,2,999,2,1.000000,2.000000,-1.000000,2.000000
135546,2026-07-29T19:56:38.219+08:00,256,0.512000,0,998,2,995,2,-2.000000,2.000000,-5.000000,2.000000
135547,2026-07-29T19:56:38.220+08:00,257,0.514000,0,995,2,996,2,-5.000000,2.000000,-4.000000,2.000000
135548,2026-07-29T19:56:38.220+08:00,258,0.516000,0,997,2,1001,2,-3.000000,2.000000,1.000000,2.000000
135549,2026-07-29T19:56:38.220+08:00,259,0.518000,0,1003,2,1004,2,3.000000,2.000000,4.000000,2.000000
135550,2026-07-29T19:56:38.220+08:00,260,0.520000,0,1005,2,1002,2,5.000000,2.000000,2.000000,2.000000
135551,2026-07-29T19:56:38.229+08:00,261,0.522000,0,1001,2,998,2,1.000000,2.000000,-2.000000,2.000000
135552,2026-07-29T19:56:38.229+08:00,262,0.524000,0,996,2,997,2,-4.000000,2.000000,-3.000000,2.000000
135553,2026-07-29T19:56:38.229+08:00,263,0.526000,0,995,2,999,2,-5.000000,2.000000,-1.000000,2.000000
135554,2026-07-29T19:56:38.229+08:00,264,0.528000,0,998,2,1000,2,-2.000000,2.000000,0.000000,2.000000
135555,2026-07-29T19:56:38.229+08:00,265,0.530000,0,1002,2,1000,2,2.000000,2.000000,0.000000,2.000000
135556,2026-07-29T19:56:38.229+08:00,266,0.532000,0,1002,2,1000,2,2.000000,2.000000,0.000000,2.000000
135557,2026-07-29T19:56:38.230+08:00,267,0.534000,0,1000,2,1001,2,0.000000,2.000000,1.000000,2.000000
135558,2026-07-29T19:56:38.230+08:00,268,0.536000,0,1000,2,1000,2,0.000000,2.000000,0.000000,2.000000
135559,2026-07-29T19:56:38.246+08:00,269,0.538000,0,1000,2,998,2,0.000000,2.000000,-2.000000,2.000000
135560,2026-07-29T19:56:38.246+08:00,270,0.540000,0,998,2,998,2,-2.000000,2.000000,-2.000000,2.000000
135561,2026-07-29T19:56:38.246+08:00,271,0.542000,0,996,2,1000,2,-4.000000,2.000000,0.000000,2.000000
135562,2026-07-29T19:56:38.250+08:00,272,0.544000,0,997,2,1001,2,-3.000000,2.000000,1.000000,2.000000
135563,2026-07-29T19:56:38.250+08:00,273,0.546000,0,1002,2,1001,2,2.000000,2.000000,1.000000,2.000000
135564,2026-07-29T19:56:38.250+08:00,274,0.548000,0,1005,2,999,2,5.000000,2.000000,-1.000000,2.000000
135565,2026-07-29T19:56:38.250+08:00,275,0.550000,0,1002,2,998,2,2.000000,2.000000,-2.000000,2.000000
135566,2026-07-29T19:56:38.257+08:00,276,0.552000,0,996,2,999,2,-4.000000,2.000000,-1.000000,2.000000
135567,2026-07-29T19:56:38.257+08:00,277,0.554000,0,995,2,1001,2,-5.000000,2.000000,1.000000,2.000000
135568,2026-07-29T19:56:38.257+08:00,278,0.556000,0,998,2,1001,2,-2.000000,2.000000,1.000000,2.000000
135569,2026-07-29T19:56:38.262+08:00,279,0.558000,0,1002,2,999,2,2.000000,2.000000,-1.000000,2.000000
135570,2026-07-29T19:56:38.262+08:00,280,0.560000,0,1002,2,998,2,2.000000,2.000000,-2.000000,2.000000
135571,2026-07-29T19:56:38.262+08:00,281,0.562000,0,1001,2,1000,2,1.000000,2.000000,0.000000,2.000000
135572,2026-07-29T19:56:38.262+08:00,282,0.564000,0,1000,2,1001,2,0.000000,2.000000,1.000000,2.000000
135573,2026-07-29T19:56:38.262+08:00,283,0.566000,0,999,2,999,2,-1.000000,2.000000,-1.000000,2.000000
135574,2026-07-29T19:56:38.273+08:00,284,0.568000,0,998,2,998,2,-2.000000,2.000000,-2.000000,2.000000
135575,2026-07-29T19:56:38.273+08:00,285,0.570000,0,998,2,999,2,-2.000000,2.000000,-1.000000,2.000000
135576,2026-07-29T19:56:38.273+08:00,286,0.572000,0,1000,2,1001,2,0.000000,2.000000,1.000000,2.000000
135577,2026-07-29T19:56:38.273+08:00,287,0.574000,0,1001,2,1001,2,1.000000,2.000000,1.000000,2.000000
135578,2026-07-29T19:56:38.285+08:00,288,0.576000,0,1001,2,1000,2,1.000000,2.000000,0.000000,2.000000
135579,2026-07-29T19:56:38.285+08:00,289,0.578000,0,999,2,999,2,-1.000000,2.000000,-1.000000,2.000000
135580,2026-07-29T19:56:38.285+08:00,290,0.580000,0,998,2,999,2,-2.000000,2.000000,-1.000000,2.000000
135581,2026-07-29T19:56:38.285+08:00,291,0.582000,0,998,2,999,2,-2.000000,2.000000,-1.000000,2.000000
135582,2026-07-29T19:56:38.285+08:00,292,0.584000,0,1000,2,999,2,0.000000,2.000000,-1.000000,2.000000
135583,2026-07-29T19:56:38.285+08:00,293,0.586000,0,1001,2,1000,2,1.000000,2.000000,0.000000,2.000000
135584,2026-07-29T19:56:38.288+08:00,294,0.588000,0,1000,2,1000,2,0.000000,2.000000,0.000000,2.000000
135585,2026-07-29T19:56:38.288+08:00,295,0.590000,0,999,2,1001,2,-1.000000,2.000000,1.000000,2.000000
135586,2026-07-29T19:56:38.288+08:00,296,0.592000,0,998,2,1000,2,-2.000000,2.000000,0.000000,2.000000
135587,2026-07-29T19:56:38.291+08:00,297,0.594000,0,998,2,998,2,-2.000000,2.000000,-2.000000,2.000000
135588,2026-07-29T19:56:38.291+08:00,298,0.596000,0,1000,2,998,2,0.000000,2.000000,-2.000000,2.000000
135589,2026-07-29T19:56:38.306+08:00,299,0.598000,0,1003,2,998,2,3.000000,2.000000,-2.000000,2.000000
135590,2026-07-29T19:56:38.306+08:00,300,0.600000,0,1002,2,1000,2,2.000000,2.000000,0.000000,2.000000
135591,2026-07-29T19:56:38.306+08:00,301,0.602000,0,998,2,1001,2,-2.000000,2.000000,1.000000,2.000000
135592,2026-07-29T19:56:38.306+08:00,302,0.604000,0,995,2,1001,2,-5.000000,2.000000,1.000000,2.000000
135593,2026-07-29T19:56:38.312+08:00,303,0.606000,0,997,2,1000,2,-3.000000,2.000000,0.000000,2.000000
135594,2026-07-29T19:56:38.312+08:00,304,0.608000,0,1002,2,998,2,2.000000,2.000000,-2.000000,2.000000
135595,2026-07-29T19:56:38.312+08:00,305,0.610000,0,1003,2,997,2,3.000000,2.000000,-3.000000,2.000000
135596,2026-07-29T19:56:38.316+08:00,306,0.612000,0,1000,2,999,2,0.000000,2.000000,-1.000000,2.000000
135597,2026-07-29T19:56:38.316+08:00,307,0.614000,0,997,2,1001,2,-3.000000,2.000000,1.000000,2.000000
135598,2026-07-29T19:56:38.316+08:00,308,0.616000,0,999,2,1001,2,-1.000000,2.000000,1.000000,2.000000
135599,2026-07-29T19:56:38.338+08:00,309,0.618000,0,1001,2,1000,2,1.000000,2.000000,0.000000,2.000000
135600,2026-07-29T19:56:38.338+08:00,310,0.620000,0,1000,2,999,2,0.000000,2.000000,-1.000000,2.000000
135601,2026-07-29T19:56:38.338+08:00,311,0.622000,0,996,2,999,2,-4.000000,2.000000,-1.000000,2.000000
135602,2026-07-29T19:56:38.338+08:00,312,0.624000,0,997,2,1000,2,-3.000000,2.000000,0.000000,2.000000
135603,2026-07-29T19:56:38.338+08:00,313,0.626000,0,1002,2,1000,2,2.000000,2.000000,0.000000,2.000000
135604,2026-07-29T19:56:38.338+08:00,314,0.628000,0,1005,2,998,2,5.000000,2.000000,-2.000000,2.000000
135605,2026-07-29T19:56:38.338+08:00,315,0.630000,0,1001,2,999,2,1.000000,2.000000,-1.000000,2.000000
135606,2026-07-29T19:56:38.338+08:00,316,0.632000,0,995,2,1001,2,-5.000000,2.000000,1.000000,2.000000
135607,2026-07-29T19:56:38.338+08:00,317,0.634000,0,994,2,1000,2,-6.000000,2.000000,0.000000,2.000000
135608,2026-07-29T19:56:38.338+08:00,318,0.636000,0,999,2,998,2,-1.000000,2.000000,-2.000000,2.000000
135609,2026-07-29T19:56:38.338+08:00,319,0.638000,0,1004,2,998,2,4.000000,2.000000,-2.000000,2.000000
135610,2026-07-29T19:56:38.338+08:00,320,0.640000,0,1003,2,1001,2,3.000000,2.000000,1.000000,2.000000
135611,2026-07-29T19:56:38.345+08:00,321,0.642000,0,998,2,1003,2,-2.000000,2.000000,3.000000,2.000000
135612,2026-07-29T19:56:38.345+08:00,322,0.644000,0,997,2,999,2,-3.000000,2.000000,-1.000000,2.000000
135613,2026-07-29T19:56:38.345+08:00,323,0.646000,0,999,2,994,2,-1.000000,2.000000,-6.000000,2.000000
135614,2026-07-29T19:56:38.348+08:00,324,0.648000,0,1001,2,996,2,1.000000,2.000000,-4.000000,2.000000
135615,2026-07-29T19:56:38.348+08:00,325,0.650000,0,1001,2,1002,2,1.000000,2.000000,2.000000,2.000000
135616,2026-07-29T19:56:38.348+08:00,326,0.652000,0,999,2,1006,2,-1.000000,2.000000,6.000000,2.000000
135617,2026-07-29T19:56:38.352+08:00,327,0.654000,0,999,2,1002,2,-1.000000,2.000000,2.000000,2.000000
135618,2026-07-29T19:56:38.352+08:00,328,0.656000,0,999,2,996,2,-1.000000,2.000000,-4.000000,2.000000
135619,2026-07-29T19:56:38.361+08:00,329,0.658000,0,1000,2,994,2,0.000000,2.000000,-6.000000,2.000000
135620,2026-07-29T19:56:38.361+08:00,330,0.660000,0,1000,2,997,2,0.000000,2.000000,-3.000000,2.000000
135621,2026-07-29T19:56:38.361+08:00,331,0.662000,0,999,2,1001,2,-1.000000,2.000000,1.000000,2.000000
135622,2026-07-29T19:56:38.367+08:00,332,0.664000,0,1000,2,1004,2,0.000000,2.000000,4.000000,2.000000
135623,2026-07-29T19:56:38.367+08:00,333,0.666000,0,1000,2,1003,2,0.000000,2.000000,3.000000,2.000000
135624,2026-07-29T19:56:38.367+08:00,334,0.668000,0,999,2,1000,2,-1.000000,2.000000,0.000000,2.000000
135625,2026-07-29T19:56:38.367+08:00,335,0.670000,0,998,2,997,2,-2.000000,2.000000,-3.000000,2.000000
135626,2026-07-29T19:56:38.398+08:00,336,0.672000,0,999,2,996,2,-1.000000,2.000000,-4.000000,2.000000
135627,2026-07-29T19:56:38.398+08:00,337,0.674000,0,1002,2,998,2,2.000000,2.000000,-2.000000,2.000000
135628,2026-07-29T19:56:38.398+08:00,338,0.676000,0,1002,2,1001,2,2.000000,2.000000,1.000000,2.000000
135629,2026-07-29T19:56:38.398+08:00,339,0.678000,0,997,2,1002,2,-3.000000,2.000000,2.000000,2.000000
135630,2026-07-29T19:56:38.398+08:00,340,0.680000,0,995,2,1001,2,-5.000000,2.000000,1.000000,2.000000
135631,2026-07-29T19:56:38.398+08:00,341,0.682000,0,1000,2,999,2,0.000000,2.000000,-1.000000,2.000000
135632,2026-07-29T19:56:38.398+08:00,342,0.684000,0,1005,2,998,2,5.000000,2.000000,-2.000000,2.000000
135633,2026-07-29T19:56:38.398+08:00,343,0.686000,0,1002,2,999,2,2.000000,2.000000,-1.000000,2.000000
135634,2026-07-29T19:56:38.399+08:00,344,0.688000,0,995,2,999,2,-5.000000,2.000000,-1.000000,2.000000
135635,2026-07-29T19:56:38.399+08:00,345,0.690000,0,993,2,1000,2,-7.000000,2.000000,0.000000,2.000000
135636,2026-07-29T19:56:38.399+08:00,346,0.692000,0,1001,2,1000,2,1.000000,2.000000,0.000000,2.000000
135637,2026-07-29T19:56:38.399+08:00,347,0.694000,0,1006,2,999,2,6.000000,2.000000,-1.000000,2.000000
135638,2026-07-29T19:56:38.399+08:00,348,0.696000,0,1003,2,999,2,3.000000,2.000000,-1.000000,2.000000
135639,2026-07-29T19:56:38.399+08:00,349,0.698000,0,996,2,1000,2,-4.000000,2.000000,0.000000,2.000000
135640,2026-07-29T19:56:38.399+08:00,350,0.700000,0,994,2,1001,2,-6.000000,2.000000,1.000000,2.000000
135641,2026-07-29T19:56:38.405+08:00,351,0.702000,0,999,2,1000,2,-1.000000,2.000000,0.000000,2.000000
135642,2026-07-29T19:56:38.405+08:00,352,0.704000,0,1004,2,998,0,4.000000,2.000000,-2.000000,0.000000
135643,2026-07-29T19:56:38.405+08:00,353,0.706000,0,1003,2,997,0,3.000000,2.000000,-3.000000,0.000000
135644,2026-07-29T19:56:38.408+08:00,354,0.708000,0,997,2,998,0,-3.000000,2.000000,-2.000000,0.000000
135645,2026-07-29T19:56:38.408+08:00,355,0.710000,0,995,2,1000,0,-5.000000,2.000000,0.000000,0.000000
135646,2026-07-29T19:56:38.408+08:00,356,0.712000,0,999,2,1003,0,-1.000000,2.000000,3.000000,0.000000
135647,2026-07-29T19:56:38.410+08:00,357,0.714000,0,1004,2,1003,0,4.000000,2.000000,3.000000,0.000000
135648,2026-07-29T19:56:38.410+08:00,358,0.716000,0,1003,2,1000,0,3.000000,2.000000,0.000000,0.000000
135649,2026-07-29T19:56:38.421+08:00,359,0.718000,0,998,2,996,0,-2.000000,2.000000,-4.000000,0.000000
135650,2026-07-29T19:56:38.421+08:00,360,0.720000,0,995,2,995,2,-5.000000,2.000000,-5.000000,2.000000
135651,2026-07-29T19:56:38.421+08:00,361,0.722000,0,997,2,998,2,-3.000000,2.000000,-2.000000,2.000000
135652,2026-07-29T19:56:38.421+08:00,362,0.724000,0,1002,2,1003,2,2.000000,2.000000,3.000000,2.000000
135653,2026-07-29T19:56:38.437+08:00,363,0.726000,0,1005,2,1004,2,5.000000,2.000000,4.000000,2.000000
135654,2026-07-29T19:56:38.437+08:00,364,0.728000,0,1002,2,1001,2,2.000000,2.000000,1.000000,2.000000
135655,2026-07-29T19:56:38.437+08:00,365,0.730000,0,996,2,997,2,-4.000000,2.000000,-3.000000,2.000000
135656,2026-07-29T19:56:38.464+08:00,366,0.732000,0,993,2,996,2,-7.000000,2.000000,-4.000000,2.000000
135657,2026-07-29T19:56:38.464+08:00,367,0.734000,0,997,2,998,2,-3.000000,2.000000,-2.000000,2.000000
135658,2026-07-29T19:56:38.464+08:00,368,0.736000,0,1003,2,1000,2,3.000000,2.000000,0.000000,2.000000
135659,2026-07-29T19:56:38.464+08:00,369,0.738000,0,1005,2,1000,2,5.000000,2.000000,0.000000,2.000000
135660,2026-07-29T19:56:38.464+08:00,370,0.740000,0,1001,2,1000,2,1.000000,2.000000,0.000000,2.000000
135661,2026-07-29T19:56:38.464+08:00,371,0.742000,0,997,2,1001,2,-3.000000,2.000000,1.000000,2.000000
135662,2026-07-29T19:56:38.464+08:00,372,0.744000,0,996,2,1001,2,-4.000000,2.000000,1.000000,2.000000
135663,2026-07-29T19:56:38.464+08:00,373,0.746000,0,997,2,1000,2,-3.000000,2.000000,0.000000,2.000000
135664,2026-07-29T19:56:38.464+08:00,374,0.748000,0,1000,2,997,2,0.000000,2.000000,-3.000000,2.000000
135665,2026-07-29T19:56:38.464+08:00,375,0.750000,0,1002,2,996,2,2.000000,2.000000,-4.000000,2.000000
135666,2026-07-29T19:56:38.464+08:00,376,0.752000,0,1002,2,999,2,2.000000,2.000000,-1.000000,2.000000
135667,2026-07-29T19:56:38.464+08:00,377,0.754000,0,1000,2,1003,2,0.000000,2.000000,3.000000,2.000000
135668,2026-07-29T19:56:38.464+08:00,378,0.756000,0,998,2,1002,2,-2.000000,2.000000,2.000000,2.000000
135669,2026-07-29T19:56:38.464+08:00,379,0.758000,0,999,2,1000,2,-1.000000,2.000000,0.000000,2.000000
135670,2026-07-29T19:56:38.464+08:00,380,0.760000,0,999,2,999,2,-1.000000,2.000000,-1.000000,2.000000
135671,2026-07-29T19:56:38.465+08:00,381,0.762000,0,998,2,998,2,-2.000000,2.000000,-2.000000,2.000000
135672,2026-07-29T19:56:38.465+08:00,382,0.764000,0,998,2,998,2,-2.000000,2.000000,-2.000000,2.000000
135673,2026-07-29T19:56:38.465+08:00,383,0.766000,0,1000,2,998,2,0.000000,2.000000,-2.000000,2.000000
135674,2026-07-29T19:56:38.468+08:00,384,0.768000,0,1003,2,1000,2,3.000000,2.000000,0.000000,2.000000
135675,2026-07-29T19:56:38.468+08:00,385,0.770000,0,1002,2,1002,2,2.000000,2.000000,2.000000,2.000000
135676,2026-07-29T19:56:38.468+08:00,386,0.772000,0,997,2,1002,2,-3.000000,2.000000,2.000000,2.000000
135677,2026-07-29T19:56:38.470+08:00,387,0.774000,0,996,2,999,2,-4.000000,2.000000,-1.000000,2.000000
135678,2026-07-29T19:56:38.470+08:00,388,0.776000,0,999,2,997,2,-1.000000,2.000000,-3.000000,2.000000
135679,2026-07-29T19:56:38.484+08:00,389,0.778000,0,1001,2,998,2,1.000000,2.000000,-2.000000,2.000000
135680,2026-07-29T19:56:38.484+08:00,390,0.780000,0,1001,2,999,2,1.000000,2.000000,-1.000000,2.000000
135681,2026-07-29T19:56:38.484+08:00,391,0.782000,0,999,2,1000,2,-1.000000,2.000000,0.000000,2.000000
135682,2026-07-29T19:56:38.484+08:00,392,0.784000,0,1000,2,1000,2,0.000000,2.000000,0.000000,2.000000
135683,2026-07-29T19:56:38.484+08:00,393,0.786000,0,1001,2,1000,2,1.000000,2.000000,0.000000,2.000000
135684,2026-07-29T19:56:38.484+08:00,394,0.788000,0,1001,2,1000,2,1.000000,2.000000,0.000000,2.000000
135685,2026-07-29T19:56:38.484+08:00,395,0.790000,0,998,2,1000,2,-2.000000,2.000000,0.000000,2.000000
135686,2026-07-29T19:56:38.495+08:00,396,0.792000,0,995,2,999,2,-5.000000,2.000000,-1.000000,2.000000
135687,2026-07-29T19:56:38.495+08:00,397,0.794000,0,997,2,998,2,-3.000000,2.000000,-2.000000,2.000000
135688,2026-07-29T19:56:38.495+08:00,398,0.796000,0,1003,2,998,2,3.000000,2.000000,-2.000000,2.000000
135689,2026-07-29T19:56:38.499+08:00,399,0.798000,0,1006,2,1000,2,6.000000,2.000000,0.000000,2.000000
135690,2026-07-29T19:56:38.499+08:00,400,0.800000,0,1002,2,1002,2,2.000000,2.000000,2.000000,2.000000
135691,2026-07-29T19:56:38.499+08:00,401,0.802000,0,996,2,1001,2,-4.000000,2.000000,1.000000,2.000000
135692,2026-07-29T19:56:38.500+08:00,402,0.804000,0,994,2,998,2,-6.000000,2.000000,-2.000000,2.000000
135693,2026-07-29T19:56:38.500+08:00,403,0.806000,0,998,2,997,2,-2.000000,2.000000,-3.000000,2.000000
135694,2026-07-29T19:56:38.527+08:00,404,0.808000,0,1003,2,1000,2,3.000000,2.000000,0.000000,2.000000
135695,2026-07-29T19:56:38.527+08:00,405,0.810000,0,1003,2,1000,2,3.000000,2.000000,0.000000,2.000000
135696,2026-07-29T19:56:38.527+08:00,406,0.812000,0,1000,2,999,2,0.000000,2.000000,-1.000000,2.000000
135697,2026-07-29T19:56:38.527+08:00,407,0.814000,0,997,2,998,2,-3.000000,2.000000,-2.000000,2.000000
135698,2026-07-29T19:56:38.527+08:00,408,0.816000,0,998,2,1001,2,-2.000000,2.000000,1.000000,2.000000
135699,2026-07-29T19:56:38.527+08:00,409,0.818000,0,1001,2,1003,2,1.000000,2.000000,3.000000,2.000000
135700,2026-07-29T19:56:38.527+08:00,410,0.820000,0,1001,2,1000,2,1.000000,2.000000,0.000000,2.000000
135701,2026-07-29T19:56:38.527+08:00,411,0.822000,0,998,2,995,2,-2.000000,2.000000,-5.000000,2.000000
135702,2026-07-29T19:56:38.527+08:00,412,0.824000,0,995,2,995,2,-5.000000,2.000000,-5.000000,2.000000
135703,2026-07-29T19:56:38.527+08:00,413,0.826000,0,999,2,1000,2,-1.000000,2.000000,0.000000,2.000000
135704,2026-07-29T19:56:38.527+08:00,414,0.828000,0,1006,2,1004,2,6.000000,2.000000,4.000000,2.000000
135705,2026-07-29T19:56:38.527+08:00,415,0.830000,0,1006,2,1003,2,6.000000,2.000000,3.000000,2.000000
135706,2026-07-29T19:56:38.527+08:00,416,0.832000,0,996,2,999,2,-4.000000,2.000000,-1.000000,2.000000
135707,2026-07-29T19:56:38.530+08:00,417,0.834000,0,989,4,996,2,-11.000000,4.000000,-4.000000,2.000000
135708,2026-07-29T19:56:38.530+08:00,418,0.836000,0,994,4,998,2,-6.000000,4.000000,-2.000000,2.000000
135709,2026-07-29T19:56:38.538+08:00,419,0.838000,0,1006,4,1000,2,6.000000,4.000000,0.000000,2.000000
135710,2026-07-29T19:56:38.548+08:00,420,0.840000,0,1010,4,999,2,10.000000,4.000000,-1.000000,2.000000
135711,2026-07-29T19:56:38.548+08:00,421,0.842000,0,1002,4,999,2,2.000000,4.000000,-1.000000,2.000000
135712,2026-07-29T19:56:38.548+08:00,422,0.844000,0,993,4,1001,2,-7.000000,4.000000,1.000000,2.000000
135713,2026-07-29T19:56:38.548+08:00,423,0.846000,0,993,4,1003,2,-7.000000,4.000000,3.000000,2.000000
135714,2026-07-29T19:56:38.548+08:00,424,0.848000,0,998,4,1002,2,-2.000000,4.000000,2.000000,2.000000
135715,2026-07-29T19:56:38.548+08:00,425,0.850000,0,1003,4,996,2,3.000000,4.000000,-4.000000,2.000000
135716,2026-07-29T19:56:38.567+08:00,426,0.852000,0,1004,4,993,2,4.000000,4.000000,-7.000000,2.000000
135717,2026-07-29T19:56:38.567+08:00,427,0.854000,0,1001,4,997,2,1.000000,4.000000,-3.000000,2.000000
135718,2026-07-29T19:56:38.567+08:00,428,0.856000,0,998,4,1004,2,-2.000000,4.000000,4.000000,2.000000
135719,2026-07-29T19:56:38.567+08:00,429,0.858000,0,997,4,1006,2,-3.000000,4.000000,6.000000,2.000000
135720,2026-07-29T19:56:38.567+08:00,430,0.860000,0,998,4,1000,2,-2.000000,4.000000,0.000000,2.000000
135721,2026-07-29T19:56:38.567+08:00,431,0.862000,0,1000,4,994,2,0.000000,4.000000,-6.000000,2.000000
135722,2026-07-29T19:56:38.577+08:00,432,0.864000,0,1001,4,995,2,1.000000,4.000000,-5.000000,2.000000
135723,2026-07-29T19:56:38.577+08:00,433,0.866000,0,1001,4,1000,2,1.000000,4.000000,0.000000,2.000000
135724,2026-07-29T19:56:38.577+08:00,434,0.868000,0,1000,4,1003,2,0.000000,4.000000,3.000000,2.000000
135725,2026-07-29T19:56:38.577+08:00,435,0.870000,0,999,4,1001,2,-1.000000,4.000000,1.000000,2.000000
135726,2026-07-29T19:56:38.577+08:00,436,0.872000,0,999,4,998,2,-1.000000,4.000000,-2.000000,2.000000
135727,2026-07-29T19:56:38.577+08:00,437,0.874000,0,999,4,997,2,-1.000000,4.000000,-3.000000,2.000000
135728,2026-07-29T19:56:38.577+08:00,438,0.876000,0,999,4,1000,2,-1.000000,4.000000,0.000000,2.000000
135729,2026-07-29T19:56:38.577+08:00,439,0.878000,0,999,4,1002,2,-1.000000,4.000000,2.000000,2.000000
135730,2026-07-29T19:56:38.577+08:00,440,0.880000,0,999,4,1000,2,-1.000000,4.000000,0.000000,2.000000
135731,2026-07-29T19:56:38.589+08:00,441,0.882000,0,999,4,996,2,-1.000000,4.000000,-4.000000,2.000000
135732,2026-07-29T19:56:38.589+08:00,442,0.884000,0,1001,4,995,2,1.000000,4.000000,-5.000000,2.000000
135733,2026-07-29T19:56:38.589+08:00,443,0.886000,0,1002,4,1000,2,2.000000,4.000000,0.000000,2.000000
135734,2026-07-29T19:56:38.589+08:00,444,0.888000,0,1001,4,1005,2,1.000000,4.000000,5.000000,2.000000
135735,2026-07-29T19:56:38.589+08:00,445,0.890000,0,998,4,1003,2,-2.000000,4.000000,3.000000,2.000000
135736,2026-07-29T19:56:38.589+08:00,446,0.892000,0,996,4,998,2,-4.000000,4.000000,-2.000000,2.000000
135737,2026-07-29T19:56:38.591+08:00,447,0.894000,0,998,4,995,2,-2.000000,4.000000,-5.000000,2.000000
135738,2026-07-29T19:56:38.591+08:00,448,0.896000,0,1002,4,997,2,2.000000,4.000000,-3.000000,2.000000
135739,2026-07-29T19:56:38.599+08:00,449,0.898000,0,1004,4,1000,2,4.000000,4.000000,0.000000,2.000000
135740,2026-07-29T19:56:38.603+08:00,450,0.900000,0,1002,4,1000,2,2.000000,4.000000,0.000000,2.000000
135741,2026-07-29T19:56:38.603+08:00,451,0.902000,0,998,4,1001,2,-2.000000,4.000000,1.000000,2.000000
135742,2026-07-29T19:56:38.603+08:00,452,0.904000,0,995,4,1003,2,-5.000000,4.000000,3.000000,2.000000
135743,2026-07-29T19:56:38.609+08:00,453,0.906000,0,997,4,1001,2,-3.000000,4.000000,1.000000,2.000000
135744,2026-07-29T19:56:38.609+08:00,454,0.908000,0,1001,4,996,2,1.000000,4.000000,-4.000000,2.000000
135745,2026-07-29T19:56:38.609+08:00,455,0.910000,0,1003,4,993,2,3.000000,4.000000,-7.000000,2.000000
135746,2026-07-29T19:56:38.619+08:00,456,0.912000,0,1002,4,997,2,2.000000,4.000000,-3.000000,2.000000
135747,2026-07-29T19:56:38.619+08:00,457,0.914000,0,999,4,1004,2,-1.000000,4.000000,4.000000,2.000000
135748,2026-07-29T19:56:38.619+08:00,458,0.916000,0,998,4,1006,2,-2.000000,4.000000,6.000000,2.000000
135749,2026-07-29T19:56:38.619+08:00,459,0.918000,0,998,4,1002,2,-2.000000,4.000000,2.000000,2.000000
135750,2026-07-29T19:56:38.619+08:00,460,0.920000,0,999,4,995,2,-1.000000,4.000000,-5.000000,2.000000
135751,2026-07-29T19:56:38.619+08:00,461,0.922000,0,999,4,994,2,-1.000000,4.000000,-6.000000,2.000000
135752,2026-07-29T19:56:38.625+08:00,462,0.924000,0,999,4,998,2,-1.000000,4.000000,-2.000000,2.000000
135753,2026-07-29T19:56:38.625+08:00,463,0.926000,0,1000,4,1002,2,0.000000,4.000000,2.000000,2.000000
135754,2026-07-29T19:56:38.654+08:00,464,0.928000,0,1001,4,1003,2,1.000000,4.000000,3.000000,2.000000
135755,2026-07-29T19:56:38.654+08:00,465,0.930000,0,1001,4,1000,2,1.000000,4.000000,0.000000,2.000000
135756,2026-07-29T19:56:38.654+08:00,466,0.932000,0,999,4,998,2,-1.000000,4.000000,-2.000000,2.000000
135757,2026-07-29T19:56:38.654+08:00,467,0.934000,0,997,4,999,2,-3.000000,4.000000,-1.000000,2.000000
135758,2026-07-29T19:56:38.654+08:00,468,0.936000,0,996,4,999,2,-4.000000,4.000000,-1.000000,2.000000
135759,2026-07-29T19:56:38.654+08:00,469,0.938000,0,999,4,998,2,-1.000000,4.000000,-2.000000,2.000000
135760,2026-07-29T19:56:38.654+08:00,470,0.940000,0,1003,4,998,2,3.000000,4.000000,-2.000000,2.000000
135761,2026-07-29T19:56:38.654+08:00,471,0.942000,0,1004,4,1000,2,4.000000,4.000000,0.000000,2.000000
135762,2026-07-29T19:56:38.654+08:00,472,0.944000,0,1001,4,1001,2,1.000000,4.000000,1.000000,2.000000
135763,2026-07-29T19:56:38.654+08:00,473,0.946000,0,997,4,1000,2,-3.000000,4.000000,0.000000,2.000000
135764,2026-07-29T19:56:38.654+08:00,474,0.948000,0,995,4,1000,2,-5.000000,4.000000,0.000000,2.000000
135765,2026-07-29T19:56:38.654+08:00,475,0.950000,0,997,4,1000,2,-3.000000,4.000000,0.000000,2.000000
135766,2026-07-29T19:56:38.654+08:00,476,0.952000,0,1001,4,999,2,1.000000,4.000000,-1.000000,2.000000
135767,2026-07-29T19:56:38.654+08:00,477,0.954000,0,1003,4,997,2,3.000000,4.000000,-3.000000,2.000000
135768,2026-07-29T19:56:38.654+08:00,478,0.956000,0,1002,4,997,2,2.000000,4.000000,-3.000000,2.000000
135769,2026-07-29T19:56:38.658+08:00,479,0.958000,0,999,4,1000,2,-1.000000,4.000000,0.000000,2.000000
135770,2026-07-29T19:56:38.660+08:00,480,0.960000,0,998,4,1004,2,-2.000000,4.000000,4.000000,2.000000
135771,2026-07-29T19:56:38.660+08:00,481,0.962000,0,998,4,1003,2,-2.000000,4.000000,3.000000,2.000000
135772,2026-07-29T19:56:38.660+08:00,482,0.964000,0,999,4,998,2,-1.000000,4.000000,-2.000000,2.000000
135773,2026-07-29T19:56:38.671+08:00,483,0.966000,0,999,2,995,2,-1.000000,2.000000,-5.000000,2.000000
135774,2026-07-29T19:56:38.671+08:00,484,0.968000,0,1000,2,997,2,0.000000,2.000000,-3.000000,2.000000
135775,2026-07-29T19:56:38.671+08:00,485,0.970000,0,1002,2,1001,2,2.000000,2.000000,1.000000,2.000000
135776,2026-07-29T19:56:38.678+08:00,486,0.972000,0,1003,2,1003,2,3.000000,2.000000,3.000000,2.000000
135777,2026-07-29T19:56:38.678+08:00,487,0.974000,0,1000,2,1001,2,0.000000,2.000000,1.000000,2.000000
135778,2026-07-29T19:56:38.678+08:00,488,0.976000,0,995,2,998,2,-5.000000,2.000000,-2.000000,2.000000
135779,2026-07-29T19:56:38.683+08:00,489,0.978000,0,994,2,999,2,-6.000000,2.000000,-1.000000,2.000000
135780,2026-07-29T19:56:38.683+08:00,490,0.980000,0,999,2,1000,2,-1.000000,2.000000,0.000000,2.000000
135781,2026-07-29T19:56:38.683+08:00,491,0.982000,0,1005,2,1000,2,5.000000,2.000000,0.000000,2.000000
135782,2026-07-29T19:56:38.689+08:00,492,0.984000,0,1005,2,998,2,5.000000,2.000000,-2.000000,2.000000
135783,2026-07-29T19:56:38.689+08:00,493,0.986000,0,1000,2,996,2,0.000000,2.000000,-4.000000,2.000000
135784,2026-07-29T19:56:38.692+08:00,494,0.988000,0,995,2,999,2,-5.000000,2.000000,-1.000000,2.000000
135785,2026-07-29T19:56:38.692+08:00,495,0.990000,0,995,2,1004,2,-5.000000,2.000000,4.000000,2.000000
135786,2026-07-29T19:56:38.692+08:00,496,0.992000,0,1000,2,1004,2,0.000000,2.000000,4.000000,2.000000
135787,2026-07-29T19:56:38.702+08:00,497,0.994000,0,1004,2,998,2,4.000000,2.000000,-2.000000,2.000000
135788,2026-07-29T19:56:38.702+08:00,498,0.996000,0,1003,2,993,2,3.000000,2.000000,-7.000000,2.000000
135789,2026-07-29T19:56:38.702+08:00,499,0.998000,0,998,2,995,2,-2.000000,2.000000,-5.000000,2.000000
135790,2026-07-29T19:56:38.702+08:00,500,1.000000,0,997,2,1002,2,-3.000000,2.000000,2.000000,2.000000
135791,2026-07-29T19:56:38.714+08:00,501,1.002000,0,1000,2,1006,2,0.000000,2.000000,6.000000,2.000000
135792,2026-07-29T19:56:38.714+08:00,502,1.004000,0,1002,2,1003,2,2.000000,2.000000,3.000000,2.000000
135793,2026-07-29T19:56:38.714+08:00,503,1.006000,0,1000,2,997,2,0.000000,2.000000,-3.000000,2.000000
135794,2026-07-29T19:56:38.714+08:00,504,1.008000,0,997,2,995,2,-3.000000,2.000000,-5.000000,2.000000
135795,2026-07-29T19:56:38.714+08:00,505,1.010000,0,998,2,999,2,-2.000000,2.000000,-1.000000,2.000000
135796,2026-07-29T19:56:38.714+08:00,506,1.012000,0,1002,2,1002,2,2.000000,2.000000,2.000000,2.000000
135797,2026-07-29T19:56:38.714+08:00,507,1.014000,0,1003,2,1001,2,3.000000,2.000000,1.000000,2.000000
135798,2026-07-29T19:56:38.714+08:00,508,1.016000,0,1000,2,997,2,0.000000,2.000000,-3.000000,2.000000
135799,2026-07-29T19:56:38.719+08:00,509,1.018000,0,996,2,997,2,-4.000000,2.000000,-3.000000,2.000000
135800,2026-07-29T19:56:38.722+08:00,510,1.020000,0,996,2,1001,2,-4.000000,2.000000,1.000000,2.000000
135801,2026-07-29T19:56:38.722+08:00,511,1.022000,0,1001,2,1004,2,1.000000,2.000000,4.000000,2.000000
135802,2026-07-29T19:56:38.722+08:00,512,1.024000,0,1004,2,1001,2,4.000000,2.000000,1.000000,2.000000
135803,2026-07-29T19:56:38.733+08:00,513,1.026000,0,1001,2,996,2,1.000000,2.000000,-4.000000,2.000000
135804,2026-07-29T19:56:38.733+08:00,514,1.028000,0,996,2,995,2,-4.000000,2.000000,-5.000000,2.000000
135805,2026-07-29T19:56:38.733+08:00,515,1.030000,0,995,4,1000,2,-5.000000,4.000000,0.000000,2.000000
135806,2026-07-29T19:56:38.737+08:00,516,1.032000,0,1001,4,1004,2,1.000000,4.000000,4.000000,2.000000
135807,2026-07-29T19:56:38.737+08:00,517,1.034000,0,1006,4,1003,2,6.000000,4.000000,3.000000,2.000000
135808,2026-07-29T19:56:38.737+08:00,518,1.036000,0,1003,4,998,2,3.000000,4.000000,-2.000000,2.000000
135809,2026-07-29T19:56:38.737+08:00,519,1.038000,0,996,4,995,2,-4.000000,4.000000,-5.000000,2.000000
135810,2026-07-29T19:56:38.743+08:00,520,1.040000,0,992,4,998,2,-8.000000,4.000000,-2.000000,2.000000
135811,2026-07-29T19:56:38.743+08:00,521,1.042000,0,997,4,1002,2,-3.000000,4.000000,2.000000,2.000000
135812,2026-07-29T19:56:38.743+08:00,522,1.044000,0,1004,4,1001,2,4.000000,4.000000,1.000000,2.000000
135813,2026-07-29T19:56:38.743+08:00,523,1.046000,0,1005,4,998,2,5.000000,4.000000,-2.000000,2.000000
135814,2026-07-29T19:56:38.774+08:00,524,1.048000,0,1002,4,998,2,2.000000,4.000000,-2.000000,2.000000
135815,2026-07-29T19:56:38.774+08:00,525,1.050000,0,997,4,1002,2,-3.000000,4.000000,2.000000,2.000000
135816,2026-07-29T19:56:38.774+08:00,526,1.052000,0,995,4,1002,2,-5.000000,4.000000,2.000000,2.000000
135817,2026-07-29T19:56:38.774+08:00,527,1.054000,0,996,4,999,2,-4.000000,4.000000,-1.000000,2.000000
135818,2026-07-29T19:56:38.774+08:00,528,1.056000,0,1000,4,995,2,0.000000,4.000000,-5.000000,2.000000
135819,2026-07-29T19:56:38.774+08:00,529,1.058000,0,1005,4,997,2,5.000000,4.000000,-3.000000,2.000000
135820,2026-07-29T19:56:38.774+08:00,530,1.060000,0,1005,4,1002,2,5.000000,4.000000,2.000000,2.000000
135821,2026-07-29T19:56:38.774+08:00,531,1.062000,0,998,4,1004,4,-2.000000,4.000000,4.000000,4.000000
135822,2026-07-29T19:56:38.774+08:00,532,1.064000,0,993,4,1000,4,-7.000000,4.000000,0.000000,4.000000
135823,2026-07-29T19:56:38.774+08:00,533,1.066000,0,995,4,996,4,-5.000000,4.000000,-4.000000,4.000000
135824,2026-07-29T19:56:38.774+08:00,534,1.068000,0,1003,4,997,4,3.000000,4.000000,-3.000000,4.000000
135825,2026-07-29T19:56:38.774+08:00,535,1.070000,0,1006,4,1000,4,6.000000,4.000000,0.000000,4.000000
135826,2026-07-29T19:56:38.774+08:00,536,1.072000,0,1001,4,1001,4,1.000000,4.000000,1.000000,4.000000
135827,2026-07-29T19:56:38.774+08:00,537,1.074000,0,994,4,999,4,-6.000000,4.000000,-1.000000,4.000000
135828,2026-07-29T19:56:38.774+08:00,538,1.076000,0,995,4,998,4,-5.000000,4.000000,-2.000000,4.000000
135829,2026-07-29T19:56:38.780+08:00,539,1.078000,0,1002,4,1001,2,2.000000,4.000000,1.000000,2.000000
135830,2026-07-29T19:56:38.780+08:00,540,1.080000,0,1005,4,1002,2,5.000000,4.000000,2.000000,2.000000
135831,2026-07-29T19:56:38.780+08:00,541,1.082000,0,1000,4,999,2,0.000000,4.000000,-1.000000,2.000000
135832,2026-07-29T19:56:38.782+08:00,542,1.084000,0,995,4,995,2,-5.000000,4.000000,-5.000000,2.000000
135833,2026-07-29T19:56:38.782+08:00,543,1.086000,0,997,4,997,2,-3.000000,4.000000,-3.000000,2.000000
135834,2026-07-29T19:56:38.782+08:00,544,1.088000,0,1002,4,1003,2,2.000000,4.000000,3.000000,2.000000
135835,2026-07-29T19:56:38.784+08:00,545,1.090000,0,1002,4,1004,4,2.000000,4.000000,4.000000,4.000000
135836,2026-07-29T19:56:38.795+08:00,546,1.092000,0,998,4,998,4,-2.000000,4.000000,-2.000000,4.000000
135837,2026-07-29T19:56:38.795+08:00,547,1.094000,0,998,4,994,4,-2.000000,4.000000,-6.000000,4.000000
135838,2026-07-29T19:56:38.795+08:00,548,1.096000,0,1001,4,998,4,1.000000,4.000000,-2.000000,4.000000
135839,2026-07-29T19:56:38.800+08:00,549,1.098000,0,1002,4,1004,4,2.000000,4.000000,4.000000,4.000000
135840,2026-07-29T19:56:38.800+08:00,550,1.100000,0,999,4,1004,4,-1.000000,4.000000,4.000000,4.000000
135841,2026-07-29T19:56:38.800+08:00,551,1.102000,0,996,4,997,4,-4.000000,4.000000,-3.000000,4.000000
135842,2026-07-29T19:56:38.807+08:00,552,1.104000,0,999,2,993,4,-1.000000,2.000000,-7.000000,4.000000
135843,2026-07-29T19:56:38.807+08:00,553,1.106000,0,1002,2,997,4,2.000000,2.000000,-3.000000,4.000000
135844,2026-07-29T19:56:38.813+08:00,554,1.108000,0,1002,2,1004,4,2.000000,2.000000,4.000000,4.000000
135845,2026-07-29T19:56:38.813+08:00,555,1.110000,0,999,2,1005,4,-1.000000,2.000000,5.000000,4.000000
135846,2026-07-29T19:56:38.813+08:00,556,1.112000,0,996,2,1000,4,-4.000000,2.000000,0.000000,4.000000
135847,2026-07-29T19:56:38.825+08:00,557,1.114000,0,998,2,995,4,-2.000000,2.000000,-5.000000,4.000000
135848,2026-07-29T19:56:38.825+08:00,558,1.116000,0,1002,2,995,4,2.000000,2.000000,-5.000000,4.000000
135849,2026-07-29T19:56:38.825+08:00,559,1.118000,0,1001,2,999,4,1.000000,2.000000,-1.000000,4.000000
135850,2026-07-29T19:56:38.825+08:00,560,1.120000,0,999,2,1003,4,-1.000000,2.000000,3.000000,4.000000
135851,2026-07-29T19:56:38.825+08:00,561,1.122000,0,998,2,1004,4,-2.000000,2.000000,4.000000,4.000000
135852,2026-07-29T19:56:38.825+08:00,562,1.124000,0,1000,2,1001,4,0.000000,2.000000,1.000000,4.000000
135853,2026-07-29T19:56:38.825+08:00,563,1.126000,0,1001,2,997,4,1.000000,2.000000,-3.000000,4.000000
135854,2026-07-29T19:56:38.840+08:00,564,1.128000,0,999,2,995,4,-1.000000,2.000000,-5.000000,4.000000
135855,2026-07-29T19:56:38.840+08:00,565,1.130000,0,997,4,997,4,-3.000000,4.000000,-3.000000,4.000000
135856,2026-07-29T19:56:38.840+08:00,566,1.132000,0,999,4,1002,4,-1.000000,4.000000,2.000000,4.000000
135857,2026-07-29T19:56:38.840+08:00,567,1.134000,0,1002,4,1004,4,2.000000,4.000000,4.000000,4.000000
135858,2026-07-29T19:56:38.840+08:00,568,1.136000,0,1002,4,1001,4,2.000000,4.000000,1.000000,4.000000
135859,2026-07-29T19:56:38.840+08:00,569,1.138000,0,1000,4,997,4,0.000000,4.000000,-3.000000,4.000000
135860,2026-07-29T19:56:38.840+08:00,570,1.140000,0,997,4,996,4,-3.000000,4.000000,-4.000000,4.000000
135861,2026-07-29T19:56:38.840+08:00,571,1.142000,0,997,4,999,4,-3.000000,4.000000,-1.000000,4.000000
135862,2026-07-29T19:56:38.840+08:00,572,1.144000,0,998,4,1001,4,-2.000000,4.000000,1.000000,4.000000
135863,2026-07-29T19:56:38.844+08:00,573,1.146000,0,1001,4,1000,4,1.000000,4.000000,0.000000,4.000000
135864,2026-07-29T19:56:38.844+08:00,574,1.148000,0,1003,4,998,4,3.000000,4.000000,-2.000000,4.000000
135865,2026-07-29T19:56:38.844+08:00,575,1.150000,0,1001,4,1000,4,1.000000,4.000000,0.000000,4.000000
135866,2026-07-29T19:56:38.860+08:00,576,1.152000,0,999,4,1002,4,-1.000000,4.000000,2.000000,4.000000
135867,2026-07-29T19:56:38.860+08:00,577,1.154000,0,997,4,1001,4,-3.000000,4.000000,1.000000,4.000000
135868,2026-07-29T19:56:38.860+08:00,578,1.156000,0,998,4,998,4,-2.000000,4.000000,-2.000000,4.000000
135869,2026-07-29T19:56:38.860+08:00,579,1.158000,0,999,2,996,4,-1.000000,2.000000,-4.000000,4.000000
135870,2026-07-29T19:56:38.860+08:00,580,1.160000,0,1000,2,998,4,0.000000,2.000000,-2.000000,4.000000
135871,2026-07-29T19:56:38.860+08:00,581,1.162000,0,1002,2,1002,4,2.000000,2.000000,2.000000,4.000000
135872,2026-07-29T19:56:38.865+08:00,582,1.164000,0,1002,2,1003,4,2.000000,2.000000,3.000000,4.000000
135873,2026-07-29T19:56:38.865+08:00,583,1.166000,0,1001,2,1001,4,1.000000,2.000000,1.000000,4.000000
135874,2026-07-29T19:56:38.872+08:00,584,1.168000,0,998,2,997,4,-2.000000,2.000000,-3.000000,4.000000
135875,2026-07-29T19:56:38.872+08:00,585,1.170000,0,996,2,996,4,-4.000000,2.000000,-4.000000,4.000000
135876,2026-07-29T19:56:38.872+08:00,586,1.172000,0,997,2,998,2,-3.000000,2.000000,-2.000000,2.000000
135877,2026-07-29T19:56:38.876+08:00,587,1.174000,0,1000,2,1001,2,0.000000,2.000000,1.000000,2.000000
135878,2026-07-29T19:56:38.876+08:00,588,1.176000,0,1002,2,1002,2,2.000000,2.000000,2.000000,2.000000
135879,2026-07-29T19:56:38.876+08:00,589,1.178000,0,1002,4,1001,2,2.000000,4.000000,1.000000,2.000000
135880,2026-07-29T19:56:38.876+08:00,590,1.180000,0,1000,4,999,2,0.000000,4.000000,-1.000000,2.000000
135881,2026-07-29T19:56:38.889+08:00,591,1.182000,0,1000,4,997,2,0.000000,4.000000,-3.000000,2.000000
135882,2026-07-29T19:56:38.889+08:00,592,1.184000,0,999,2,998,2,-1.000000,2.000000,-2.000000,2.000000
135883,2026-07-29T19:56:38.889+08:00,593,1.186000,0,996,4,1000,2,-4.000000,4.000000,0.000000,2.000000
135884,2026-07-29T19:56:38.889+08:00,594,1.188000,0,996,4,1002,2,-4.000000,4.000000,2.000000,2.000000
135885,2026-07-29T19:56:38.889+08:00,595,1.190000,0,999,4,1002,2,-1.000000,4.000000,2.000000,2.000000
135886,2026-07-29T19:56:38.889+08:00,596,1.192000,0,1005,4,1000,2,5.000000,4.000000,0.000000,2.000000
135887,2026-07-29T19:56:38.889+08:00,597,1.194000,0,1005,4,996,2,5.000000,4.000000,-4.000000,2.000000
135888,2026-07-29T19:56:38.906+08:00,598,1.196000,0,1000,4,996,2,0.000000,4.000000,-4.000000,2.000000
135889,2026-07-29T19:56:38.906+08:00,599,1.198000,0,994,4,1000,2,-6.000000,4.000000,0.000000,2.000000
135890,2026-07-29T19:56:38.906+08:00,600,1.200000,0,994,4,1003,2,-6.000000,4.000000,3.000000,2.000000
135891,2026-07-29T19:56:38.906+08:00,601,1.202000,0,999,4,1002,2,-1.000000,4.000000,2.000000,2.000000
135892,2026-07-29T19:56:38.906+08:00,602,1.204000,0,1003,4,998,4,3.000000,4.000000,-2.000000,4.000000
135893,2026-07-29T19:56:38.906+08:00,603,1.206000,0,1004,4,997,4,4.000000,4.000000,-3.000000,4.000000
135894,2026-07-29T19:56:38.906+08:00,604,1.208000,0,1000,4,1000,4,0.000000,4.000000,0.000000,4.000000
135895,2026-07-29T19:56:38.906+08:00,605,1.210000,0,996,4,1001,4,-4.000000,4.000000,1.000000,4.000000
135896,2026-07-29T19:56:38.915+08:00,606,1.212000,0,996,4,999,2,-4.000000,4.000000,-1.000000,2.000000
135897,2026-07-29T19:56:38.915+08:00,607,1.214000,0,1000,4,998,4,0.000000,4.000000,-2.000000,4.000000
135898,2026-07-29T19:56:38.915+08:00,608,1.216000,0,1002,4,1000,2,2.000000,4.000000,0.000000,2.000000
135899,2026-07-29T19:56:38.917+08:00,609,1.218000,0,1001,4,1001,2,1.000000,4.000000,1.000000,2.000000
135900,2026-07-29T19:56:38.917+08:00,610,1.220000,0,998,4,1001,2,-2.000000,4.000000,1.000000,2.000000
135901,2026-07-29T19:56:38.917+08:00,611,1.222000,0,997,4,999,2,-3.000000,4.000000,-1.000000,2.000000
135902,2026-07-29T19:56:38.922+08:00,612,1.224000,0,999,4,997,2,-1.000000,4.000000,-3.000000,2.000000
135903,2026-07-29T19:56:38.922+08:00,613,1.226000,0,1001,4,998,2,1.000000,4.000000,-2.000000,2.000000
135904,2026-07-29T19:56:38.939+08:00,614,1.228000,0,1001,4,1001,2,1.000000,4.000000,1.000000,2.000000
135905,2026-07-29T19:56:38.939+08:00,615,1.230000,0,999,4,1002,2,-1.000000,4.000000,2.000000,2.000000
135906,2026-07-29T19:56:38.939+08:00,616,1.232000,0,999,4,1001,2,-1.000000,4.000000,1.000000,2.000000
135907,2026-07-29T19:56:38.939+08:00,617,1.234000,0,1000,4,998,2,0.000000,4.000000,-2.000000,2.000000
135908,2026-07-29T19:56:38.939+08:00,618,1.236000,0,1000,4,997,2,0.000000,4.000000,-3.000000,2.000000
135909,2026-07-29T19:56:38.939+08:00,619,1.238000,0,998,2,999,2,-2.000000,2.000000,-1.000000,2.000000
135910,2026-07-29T19:56:38.945+08:00,620,1.240000,0,997,2,1001,2,-3.000000,2.000000,1.000000,2.000000
135911,2026-07-29T19:56:38.945+08:00,621,1.242000,0,1000,2,1000,2,0.000000,2.000000,0.000000,2.000000
135912,2026-07-29T19:56:38.945+08:00,622,1.244000,0,1004,2,1000,2,4.000000,2.000000,0.000000,2.000000
135913,2026-07-29T19:56:38.945+08:00,623,1.246000,0,1002,2,999,2,2.000000,2.000000,-1.000000,2.000000
135914,2026-07-29T19:56:38.961+08:00,624,1.248000,0,997,2,999,2,-3.000000,2.000000,-1.000000,2.000000
135915,2026-07-29T19:56:38.961+08:00,625,1.250000,0,994,2,1000,2,-6.000000,2.000000,0.000000,2.000000
135916,2026-07-29T19:56:38.961+08:00,626,1.252000,0,998,2,1000,2,-2.000000,2.000000,0.000000,2.000000
135917,2026-07-29T19:56:38.961+08:00,627,1.254000,0,1003,2,999,2,3.000000,2.000000,-1.000000,2.000000
135918,2026-07-29T19:56:38.961+08:00,628,1.256000,0,1003,2,997,2,3.000000,2.000000,-3.000000,2.000000
135919,2026-07-29T19:56:38.961+08:00,629,1.258000,0,999,2,997,2,-1.000000,2.000000,-3.000000,2.000000
135920,2026-07-29T19:56:38.961+08:00,630,1.260000,0,997,2,1001,2,-3.000000,2.000000,1.000000,2.000000
135921,2026-07-29T19:56:38.961+08:00,631,1.262000,0,999,2,1004,2,-1.000000,2.000000,4.000000,2.000000
135922,2026-07-29T19:56:38.961+08:00,632,1.264000,0,1001,2,1003,2,1.000000,2.000000,3.000000,2.000000
135923,2026-07-29T19:56:38.979+08:00,633,1.266000,0,1000,2,997,2,0.000000,2.000000,-3.000000,2.000000
135924,2026-07-29T19:56:38.979+08:00,634,1.268000,0,997,2,994,2,-3.000000,2.000000,-6.000000,2.000000
135925,2026-07-29T19:56:38.979+08:00,635,1.270000,0,998,2,996,2,-2.000000,2.000000,-4.000000,2.000000
135926,2026-07-29T19:56:38.979+08:00,636,1.272000,0,1001,2,1002,2,1.000000,2.000000,2.000000,2.000000
135927,2026-07-29T19:56:38.979+08:00,637,1.274000,0,1003,2,1005,2,3.000000,2.000000,5.000000,2.000000
135928,2026-07-29T19:56:38.979+08:00,638,1.276000,0,1003,2,1002,2,3.000000,2.000000,2.000000,2.000000
135929,2026-07-29T19:56:38.979+08:00,639,1.278000,0,998,2,997,2,-2.000000,2.000000,-3.000000,2.000000
135930,2026-07-29T19:56:38.979+08:00,640,1.280000,0,993,2,996,2,-7.000000,2.000000,-4.000000,2.000000
135931,2026-07-29T19:56:38.979+08:00,641,1.282000,0,995,2,998,2,-5.000000,2.000000,-2.000000,2.000000
135932,2026-07-29T19:56:38.980+08:00,642,1.284000,0,1002,2,1000,2,2.000000,2.000000,0.000000,2.000000
135933,2026-07-29T19:56:38.980+08:00,643,1.286000,0,1007,4,1001,2,7.000000,4.000000,1.000000,2.000000
135934,2026-07-29T19:56:38.991+08:00,644,1.288000,0,1004,4,1001,2,4.000000,4.000000,1.000000,2.000000
135935,2026-07-29T19:56:38.991+08:00,645,1.290000,0,995,4,1001,2,-5.000000,4.000000,1.000000,2.000000
135936,2026-07-29T19:56:38.991+08:00,646,1.292000,0,993,4,999,2,-7.000000,4.000000,-1.000000,2.000000
135937,2026-07-29T19:56:38.994+08:00,647,1.294000,0,998,4,996,2,-2.000000,4.000000,-4.000000,2.000000
135938,2026-07-29T19:56:38.994+08:00,648,1.296000,0,1004,4,998,2,4.000000,4.000000,-2.000000,2.000000
135939,2026-07-29T19:56:38.994+08:00,649,1.298000,0,1003,4,1002,2,3.000000,4.000000,2.000000,2.000000
135940,2026-07-29T19:56:39.001+08:00,650,1.300000,0,998,2,1004,2,-2.000000,2.000000,4.000000,2.000000
135941,2026-07-29T19:56:39.012+08:00,651,1.302000,0,996,2,999,2,-4.000000,2.000000,-1.000000,2.000000
135942,2026-07-29T19:56:39.012+08:00,652,1.304000,0,1000,2,995,2,0.000000,2.000000,-5.000000,2.000000
135943,2026-07-29T19:56:39.012+08:00,653,1.306000,0,1003,2,996,2,3.000000,2.000000,-4.000000,2.000000
135944,2026-07-29T19:56:39.012+08:00,654,1.308000,0,1000,2,1002,2,0.000000,2.000000,2.000000,2.000000
135945,2026-07-29T19:56:39.012+08:00,655,1.310000,0,996,2,1005,2,-4.000000,2.000000,5.000000,2.000000
135946,2026-07-29T19:56:39.012+08:00,656,1.312000,0,996,2,1002,2,-4.000000,2.000000,2.000000,2.000000
135947,2026-07-29T19:56:39.012+08:00,657,1.314000,0,1001,2,996,2,1.000000,2.000000,-4.000000,2.000000
135948,2026-07-29T19:56:39.012+08:00,658,1.316000,0,1004,2,993,2,4.000000,2.000000,-7.000000,2.000000
135949,2026-07-29T19:56:39.047+08:00,659,1.318000,0,1001,2,998,2,1.000000,2.000000,-2.000000,2.000000
135950,2026-07-29T19:56:39.047+08:00,660,1.320000,0,997,2,1005,2,-3.000000,2.000000,5.000000,2.000000
135951,2026-07-29T19:56:39.047+08:00,661,1.322000,0,997,2,1005,2,-3.000000,2.000000,5.000000,2.000000
135952,2026-07-29T19:56:39.047+08:00,662,1.324000,0,1000,2,998,2,0.000000,2.000000,-2.000000,2.000000
135953,2026-07-29T19:56:39.047+08:00,663,1.326000,0,1001,2,993,2,1.000000,2.000000,-7.000000,2.000000
135954,2026-07-29T19:56:39.047+08:00,664,1.328000,0,999,2,997,2,-1.000000,2.000000,-3.000000,2.000000
135955,2026-07-29T19:56:39.047+08:00,665,1.330000,0,998,2,1003,2,-2.000000,2.000000,3.000000,2.000000
135956,2026-07-29T19:56:39.047+08:00,666,1.332000,0,1000,2,1004,2,0.000000,2.000000,4.000000,2.000000
135957,2026-07-29T19:56:39.047+08:00,667,1.334000,0,1002,2,1000,2,2.000000,2.000000,0.000000,2.000000
135958,2026-07-29T19:56:39.047+08:00,668,1.336000,0,1002,2,996,2,2.000000,2.000000,-4.000000,2.000000
135959,2026-07-29T19:56:39.047+08:00,669,1.338000,0,998,2,997,2,-2.000000,2.000000,-3.000000,2.000000
135960,2026-07-29T19:56:39.047+08:00,670,1.340000,0,995,2,1000,2,-5.000000,2.000000,0.000000,2.000000
135961,2026-07-29T19:56:39.047+08:00,671,1.342000,0,997,2,1000,2,-3.000000,2.000000,0.000000,2.000000
135962,2026-07-29T19:56:39.047+08:00,672,1.344000,0,1003,2,1001,2,3.000000,2.000000,1.000000,2.000000
135963,2026-07-29T19:56:39.047+08:00,673,1.346000,0,1004,2,1001,2,4.000000,2.000000,1.000000,2.000000
135964,2026-07-29T19:56:39.048+08:00,674,1.348000,0,1001,2,1000,2,1.000000,2.000000,0.000000,2.000000
135965,2026-07-29T19:56:39.050+08:00,675,1.350000,0,997,2,997,2,-3.000000,2.000000,-3.000000,2.000000
135966,2026-07-29T19:56:39.050+08:00,676,1.352000,0,996,2,997,2,-4.000000,2.000000,-3.000000,2.000000
135967,2026-07-29T19:56:39.050+08:00,677,1.354000,0,997,2,1000,2,-3.000000,2.000000,0.000000,2.000000
135968,2026-07-29T19:56:39.054+08:00,678,1.356000,0,999,2,1003,2,-1.000000,2.000000,3.000000,2.000000
135969,2026-07-29T19:56:39.054+08:00,679,1.358000,0,1002,2,1002,2,2.000000,2.000000,2.000000,2.000000
135970,2026-07-29T19:56:39.054+08:00,680,1.360000,0,1005,2,998,2,5.000000,2.000000,-2.000000,2.000000
135971,2026-07-29T19:56:39.071+08:00,681,1.362000,0,1003,2,995,2,3.000000,2.000000,-5.000000,2.000000
135972,2026-07-29T19:56:39.071+08:00,682,1.364000,0,997,2,998,2,-3.000000,2.000000,-2.000000,2.000000
135973,2026-07-29T19:56:39.071+08:00,683,1.366000,0,993,2,1002,2,-7.000000,2.000000,2.000000,2.000000
135974,2026-07-29T19:56:39.071+08:00,684,1.368000,0,995,2,1004,2,-5.000000,2.000000,4.000000,2.000000
135975,2026-07-29T19:56:39.071+08:00,685,1.370000,0,1002,2,1001,2,2.000000,2.000000,1.000000,2.000000
135976,2026-07-29T19:56:39.071+08:00,686,1.372000,0,1006,2,995,2,6.000000,2.000000,-5.000000,2.000000
135977,2026-07-29T19:56:39.071+08:00,687,1.374000,0,1004,2,995,2,4.000000,2.000000,-5.000000,2.000000
135978,2026-07-29T19:56:39.071+08:00,688,1.376000,0,999,2,1000,2,-1.000000,2.000000,0.000000,2.000000
135979,2026-07-29T19:56:39.097+08:00,689,1.378000,0,995,2,1003,2,-5.000000,2.000000,3.000000,2.000000
135980,2026-07-29T19:56:39.097+08:00,690,1.380000,0,995,2,1001,2,-5.000000,2.000000,1.000000,2.000000
135981,2026-07-29T19:56:39.097+08:00,691,1.382000,0,998,2,997,2,-2.000000,2.000000,-3.000000,2.000000
135982,2026-07-29T19:56:39.097+08:00,692,1.384000,0,1001,2,998,2,1.000000,2.000000,-2.000000,2.000000
135983,2026-07-29T19:56:39.097+08:00,693,1.386000,0,1003,2,1001,2,3.000000,2.000000,1.000000,2.000000
135984,2026-07-29T19:56:39.097+08:00,694,1.388000,0,1003,4,1001,2,3.000000,4.000000,1.000000,2.000000
135985,2026-07-29T19:56:39.097+08:00,695,1.390000,0,1001,4,999,2,1.000000,4.000000,-1.000000,2.000000
135986,2026-07-29T19:56:39.097+08:00,696,1.392000,0,997,4,998,2,-3.000000,4.000000,-2.000000,2.000000
135987,2026-07-29T19:56:39.097+08:00,697,1.394000,0,995,4,999,2,-5.000000,4.000000,-1.000000,2.000000
135988,2026-07-29T19:56:39.097+08:00,698,1.396000,0,998,4,999,2,-2.000000,4.000000,-1.000000,2.000000
135989,2026-07-29T19:56:39.097+08:00,699,1.398000,0,1002,4,1000,2,2.000000,4.000000,0.000000,2.000000
135990,2026-07-29T19:56:39.097+08:00,700,1.400000,0,1003,4,1001,2,3.000000,4.000000,1.000000,2.000000
135991,2026-07-29T19:56:39.097+08:00,701,1.402000,0,1000,4,1001,2,0.000000,4.000000,1.000000,2.000000
135992,2026-07-29T19:56:39.122+08:00,702,1.404000,0,998,4,998,2,-2.000000,4.000000,-2.000000,2.000000
135993,2026-07-29T19:56:39.122+08:00,703,1.406000,0,998,4,996,2,-2.000000,4.000000,-4.000000,2.000000
135994,2026-07-29T19:56:39.122+08:00,704,1.408000,0,999,4,998,2,-1.000000,4.000000,-2.000000,2.000000
135995,2026-07-29T19:56:39.122+08:00,705,1.410000,0,1000,4,1002,2,0.000000,4.000000,2.000000,2.000000
135996,2026-07-29T19:56:39.122+08:00,706,1.412000,0,999,4,1004,2,-1.000000,4.000000,4.000000,2.000000
135997,2026-07-29T19:56:39.122+08:00,707,1.414000,0,998,4,1000,2,-2.000000,4.000000,0.000000,2.000000
135998,2026-07-29T19:56:39.122+08:00,708,1.416000,0,999,4,997,2,-1.000000,4.000000,-3.000000,2.000000
135999,2026-07-29T19:56:39.122+08:00,709,1.418000,0,1002,4,996,2,2.000000,4.000000,-4.000000,2.000000
136000,2026-07-29T19:56:39.122+08:00,710,1.420000,0,1002,4,998,2,2.000000,4.000000,-2.000000,2.000000
136001,2026-07-29T19:56:39.125+08:00,711,1.422000,0,999,4,1000,2,-1.000000,4.000000,0.000000,2.000000
136002,2026-07-29T19:56:39.125+08:00,712,1.424000,0,996,4,1001,2,-4.000000,4.000000,1.000000,2.000000
136003,2026-07-29T19:56:39.125+08:00,713,1.426000,0,998,4,1002,2,-2.000000,4.000000,2.000000,2.000000
136004,2026-07-29T19:56:39.128+08:00,714,1.428000,0,1002,4,1002,2,2.000000,4.000000,2.000000,2.000000
136005,2026-07-29T19:56:39.128+08:00,715,1.430000,0,1003,4,998,2,3.000000,4.000000,-2.000000,2.000000
136006,2026-07-29T19:56:39.128+08:00,716,1.432000,0,1000,4,995,2,0.000000,4.000000,-5.000000,2.000000
136007,2026-07-29T19:56:39.131+08:00,717,1.434000,0,997,4,995,2,-3.000000,4.000000,-5.000000,2.000000
136008,2026-07-29T19:56:39.131+08:00,718,1.436000,0,998,4,1001,2,-2.000000,4.000000,1.000000,2.000000
136009,2026-07-29T19:56:39.143+08:00,719,1.438000,0,1001,4,1005,2,1.000000,4.000000,5.000000,2.000000
136010,2026-07-29T19:56:39.143+08:00,720,1.440000,0,1001,4,1004,2,1.000000,4.000000,4.000000,2.000000
136011,2026-07-29T19:56:39.143+08:00,721,1.442000,0,1000,4,998,2,0.000000,4.000000,-2.000000,2.000000
136012,2026-07-29T19:56:39.143+08:00,722,1.444000,0,999,2,995,2,-1.000000,2.000000,-5.000000,2.000000
136013,2026-07-29T19:56:39.143+08:00,723,1.446000,0,1000,2,997,2,0.000000,2.000000,-3.000000,2.000000
136014,2026-07-29T19:56:39.143+08:00,724,1.448000,0,1000,2,1000,2,0.000000,2.000000,0.000000,2.000000
136015,2026-07-29T19:56:39.147+08:00,725,1.450000,0,997,2,1001,2,-3.000000,2.000000,1.000000,2.000000
136016,2026-07-29T19:56:39.159+08:00,726,1.452000,0,996,2,1000,2,-4.000000,2.000000,0.000000,2.000000
136017,2026-07-29T19:56:39.159+08:00,727,1.454000,0,1001,2,1000,2,1.000000,2.000000,0.000000,2.000000
136018,2026-07-29T19:56:39.159+08:00,728,1.456000,0,1007,2,1001,2,7.000000,2.000000,1.000000,2.000000
136019,2026-07-29T19:56:39.159+08:00,729,1.458000,0,1004,2,1000,2,4.000000,2.000000,0.000000,2.000000
136020,2026-07-29T19:56:39.159+08:00,730,1.460000,0,994,2,998,2,-6.000000,2.000000,-2.000000,2.000000
136021,2026-07-29T19:56:39.159+08:00,731,1.462000,0,988,4,997,2,-12.000000,4.000000,-3.000000,2.000000
136022,2026-07-29T19:56:39.200+08:00,732,1.464000,0,995,4,999,2,-5.000000,4.000000,-1.000000,2.000000
136023,2026-07-29T19:56:39.200+08:00,733,1.466000,0,1007,4,1002,2,7.000000,4.000000,2.000000,2.000000
136024,2026-07-29T19:56:39.200+08:00,734,1.468000,0,1011,4,1002,2,11.000000,4.000000,2.000000,2.000000
136025,2026-07-29T19:56:39.200+08:00,735,1.470000,0,1003,4,999,2,3.000000,4.000000,-1.000000,2.000000
136026,2026-07-29T19:56:39.200+08:00,736,1.472000,0,993,4,998,2,-7.000000,4.000000,-2.000000,2.000000
136027,2026-07-29T19:56:39.200+08:00,737,1.474000,0,990,4,1000,2,-10.000000,4.000000,0.000000,2.000000
136028,2026-07-29T19:56:39.200+08:00,738,1.476000,0,996,4,1001,2,-4.000000,4.000000,1.000000,2.000000
136029,2026-07-29T19:56:39.200+08:00,739,1.478000,0,1004,4,998,2,4.000000,4.000000,-2.000000,2.000000
136030,2026-07-29T19:56:39.200+08:00,740,1.480000,0,1006,4,996,2,6.000000,4.000000,-4.000000,2.000000
136031,2026-07-29T19:56:39.200+08:00,741,1.482000,0,1002,4,999,2,2.000000,4.000000,-1.000000,2.000000
136032,2026-07-29T19:56:39.200+08:00,742,1.484000,0,999,4,1003,2,-1.000000,4.000000,3.000000,2.000000
136033,2026-07-29T19:56:39.200+08:00,743,1.486000,0,998,4,1004,2,-2.000000,4.000000,4.000000,2.000000
136034,2026-07-29T19:56:39.200+08:00,744,1.488000,0,997,4,999,2,-3.000000,4.000000,-1.000000,2.000000
136035,2026-07-29T19:56:39.200+08:00,745,1.490000,0,997,4,995,2,-3.000000,4.000000,-5.000000,2.000000
136036,2026-07-29T19:56:39.200+08:00,746,1.492000,0,999,4,996,2,-1.000000,4.000000,-4.000000,2.000000
136037,2026-07-29T19:56:39.200+08:00,747,1.494000,0,1002,4,1000,2,2.000000,4.000000,0.000000,2.000000
136038,2026-07-29T19:56:39.200+08:00,748,1.496000,0,1003,4,1003,2,3.000000,4.000000,3.000000,2.000000
136039,2026-07-29T19:56:39.200+08:00,749,1.498000,0,1000,4,1002,2,0.000000,4.000000,2.000000,2.000000
136040,2026-07-29T19:56:39.200+08:00,750,1.500000,0,996,4,1000,2,-4.000000,4.000000,0.000000,2.000000
136041,2026-07-29T19:56:39.200+08:00,751,1.502000,0,998,4,998,2,-2.000000,4.000000,-2.000000,2.000000
136042,2026-07-29T19:56:39.202+08:00,752,1.504000,0,1003,4,998,2,3.000000,4.000000,-2.000000,2.000000
136043,2026-07-29T19:56:39.202+08:00,753,1.506000,0,1004,4,1000,2,4.000000,4.000000,0.000000,2.000000
136044,2026-07-29T19:56:39.202+08:00,754,1.508000,0,997,4,1000,2,-3.000000,4.000000,0.000000,2.000000
136045,2026-07-29T19:56:39.205+08:00,755,1.510000,0,990,4,999,2,-10.000000,4.000000,-1.000000,2.000000
136046,2026-07-29T19:56:39.217+08:00,756,1.512000,0,995,4,999,2,-5.000000,4.000000,-1.000000,2.000000
136047,2026-07-29T19:56:39.217+08:00,757,1.514000,0,1008,4,1000,2,8.000000,4.000000,0.000000,2.000000
136048,2026-07-29T19:56:39.217+08:00,758,1.516000,0,1013,4,1001,2,13.000000,4.000000,1.000000,2.000000
136049,2026-07-29T19:56:39.224+08:00,759,1.518000,0,1001,4,1000,2,1.000000,4.000000,0.000000,2.000000
136050,2026-07-29T19:56:39.224+08:00,760,1.520000,0,986,4,997,2,-14.000000,4.000000,-3.000000,2.000000
136051,2026-07-29T19:56:39.224+08:00,761,1.522000,0,987,4,997,2,-13.000000,4.000000,-3.000000,2.000000
136052,2026-07-29T19:56:39.224+08:00,762,1.524000,0,1003,4,1000,2,3.000000,4.000000,0.000000,2.000000
136053,2026-07-29T19:56:39.224+08:00,763,1.526000,0,1014,4,1002,2,14.000000,4.000000,2.000000,2.000000
136054,2026-07-29T19:56:39.234+08:00,764,1.528000,0,1006,4,1000,2,6.000000,4.000000,0.000000,2.000000
136055,2026-07-29T19:56:39.234+08:00,765,1.530000,0,990,4,998,2,-10.000000,4.000000,-2.000000,2.000000
136056,2026-07-29T19:56:39.234+08:00,766,1.532000,0,985,6,999,2,-15.000000,6.000000,-1.000000,2.000000
136057,2026-07-29T19:56:39.234+08:00,767,1.534000,0,997,6,1000,2,-3.000000,6.000000,0.000000,2.000000
136058,2026-07-29T19:56:39.234+08:00,768,1.536000,0,1012,6,1000,2,12.000000,6.000000,0.000000,2.000000
136059,2026-07-29T19:56:39.234+08:00,769,1.538000,0,1016,6,1000,2,16.000000,6.000000,0.000000,2.000000
136060,2026-07-29T19:56:39.234+08:00,770,1.540000,0,1005,6,1000,2,5.000000,6.000000,0.000000,2.000000
136061,2026-07-29T19:56:39.253+08:00,771,1.542000,0,986,6,1000,2,-14.000000,6.000000,0.000000,2.000000
136062,2026-07-29T19:56:39.253+08:00,772,1.544000,0,976,6,998,2,-24.000000,6.000000,-2.000000,2.000000
136063,2026-07-29T19:56:39.253+08:00,773,1.546000,0,987,6,998,2,-13.000000,6.000000,-2.000000,2.000000
136064,2026-07-29T19:56:39.253+08:00,774,1.548000,0,1014,6,1001,2,14.000000,6.000000,1.000000,2.000000
136065,2026-07-29T19:56:39.253+08:00,775,1.550000,0,1030,6,1002,2,30.000000,6.000000,2.000000,2.000000
136066,2026-07-29T19:56:39.253+08:00,776,1.552000,0,1016,6,1000,2,16.000000,6.000000,0.000000,2.000000
136067,2026-07-29T19:56:39.253+08:00,777,1.554000,0,987,6,997,2,-13.000000,6.000000,-3.000000,2.000000
136068,2026-07-29T19:56:39.253+08:00,778,1.556000,0,972,8,997,2,-28.000000,8.000000,-3.000000,2.000000
136069,2026-07-29T19:56:39.271+08:00,779,1.558000,0,981,8,1001,2,-19.000000,8.000000,1.000000,2.000000
136070,2026-07-29T19:56:39.271+08:00,780,1.560000,0,1003,8,1002,2,3.000000,8.000000,2.000000,2.000000
136071,2026-07-29T19:56:39.271+08:00,781,1.562000,0,1022,8,999,2,22.000000,8.000000,-1.000000,2.000000
136072,2026-07-29T19:56:39.271+08:00,782,1.564000,0,1021,8,997,2,21.000000,8.000000,-3.000000,2.000000
136073,2026-07-29T19:56:39.271+08:00,783,1.566000,0,1001,8,1000,2,1.000000,8.000000,0.000000,2.000000
136074,2026-07-29T19:56:39.271+08:00,784,1.568000,0,982,8,1002,2,-18.000000,8.000000,2.000000,2.000000
136075,2026-07-29T19:56:39.271+08:00,785,1.570000,0,985,8,1001,2,-15.000000,8.000000,1.000000,2.000000
136076,2026-07-29T19:56:39.273+08:00,786,1.572000,0,1000,8,997,2,0.000000,8.000000,-3.000000,2.000000
136077,2026-07-29T19:56:39.277+08:00,787,1.574000,0,1002,8,996,2,2.000000,8.000000,-4.000000,2.000000
136078,2026-07-29T19:56:39.277+08:00,788,1.576000,0,994,8,999,2,-6.000000,8.000000,-1.000000,2.000000
136079,2026-07-29T19:56:39.277+08:00,789,1.578000,0,999,8,1002,2,-1.000000,8.000000,2.000000,2.000000
136080,2026-07-29T19:56:39.279+08:00,790,1.580000,0,1019,8,1003,2,19.000000,8.000000,3.000000,2.000000
136081,2026-07-29T19:56:39.279+08:00,791,1.582000,0,1022,10,1001,2,22.000000,10.000000,1.000000,2.000000
136082,2026-07-29T19:56:39.279+08:00,792,1.584000,0,993,10,998,2,-7.000000,10.000000,-2.000000,2.000000
136083,2026-07-29T19:56:39.281+08:00,793,1.586000,0,961,10,996,2,-39.000000,10.000000,-4.000000,2.000000
136084,2026-07-29T19:56:39.295+08:00,794,1.588000,1,972,10,996,2,-28.000000,10.000000,-4.000000,2.000000
136085,2026-07-29T19:56:39.295+08:00,795,1.590000,1,1018,10,1000,2,18.000000,10.000000,0.000000,2.000000
136086,2026-07-29T19:56:39.295+08:00,796,1.592000,1,1042,12,1005,2,42.000000,12.000000,5.000000,2.000000
136087,2026-07-29T19:56:39.295+08:00,797,1.594000,1,1016,12,1005,2,16.000000,12.000000,5.000000,2.000000
136088,2026-07-29T19:56:39.295+08:00,798,1.596000,1,976,12,998,2,-24.000000,12.000000,-2.000000,2.000000
136089,2026-07-29T19:56:39.295+08:00,799,1.598000,1,972,12,993,2,-28.000000,12.000000,-7.000000,2.000000
136090,2026-07-29T19:56:39.295+08:00,800,1.600000,1,998,12,996,2,-2.000000,12.000000,-4.000000,2.000000
136091,2026-07-29T19:56:39.306+08:00,801,1.602000,1,1011,12,1003,2,11.000000,12.000000,3.000000,2.000000
136092,2026-07-29T19:56:39.306+08:00,802,1.604000,1,1004,12,1004,2,4.000000,12.000000,4.000000,2.000000
136093,2026-07-29T19:56:39.306+08:00,803,1.606000,1,1001,12,1001,2,1.000000,12.000000,1.000000,2.000000
136094,2026-07-29T19:56:39.313+08:00,804,1.608000,1,1009,12,997,2,9.000000,12.000000,-3.000000,2.000000
136095,2026-07-29T19:56:39.313+08:00,805,1.610000,1,1005,12,998,2,5.000000,12.000000,-2.000000,2.000000
136096,2026-07-29T19:56:39.324+08:00,806,1.612000,1,987,12,1000,2,-13.000000,12.000000,0.000000,2.000000
136097,2026-07-29T19:56:39.324+08:00,807,1.614000,1,981,12,1001,2,-19.000000,12.000000,1.000000,2.000000
136098,2026-07-29T19:56:39.324+08:00,808,1.616000,1,1000,12,998,2,0.000000,12.000000,-2.000000,2.000000
136099,2026-07-29T19:56:39.324+08:00,809,1.618000,1,1018,12,997,2,18.000000,12.000000,-3.000000,2.000000
136100,2026-07-29T19:56:39.324+08:00,810,1.620000,1,1012,14,1000,2,12.000000,14.000000,0.000000,2.000000
136101,2026-07-29T19:56:39.344+08:00,811,1.622000,1,992,14,1003,2,-8.000000,14.000000,3.000000,2.000000
136102,2026-07-29T19:56:39.344+08:00,812,1.624000,1,985,14,1002,2,-15.000000,14.000000,2.000000,2.000000
136103,2026-07-29T19:56:39.344+08:00,813,1.626000,1,998,14,997,2,-2.000000,14.000000,-3.000000,2.000000
136104,2026-07-29T19:56:39.344+08:00,814,1.628000,1,1010,14,995,2,10.000000,14.000000,-5.000000,2.000000
136105,2026-07-29T19:56:39.344+08:00,815,1.630000,1,1005,14,999,2,5.000000,14.000000,-1.000000,2.000000
136106,2026-07-29T19:56:39.344+08:00,816,1.632000,1,992,14,1004,2,-8.000000,14.000000,4.000000,2.000000
136107,2026-07-29T19:56:39.344+08:00,817,1.634000,1,987,14,1002,2,-13.000000,14.000000,2.000000,2.000000
136108,2026-07-29T19:56:39.344+08:00,818,1.636000,1,999,14,997,2,-1.000000,14.000000,-3.000000,2.000000
136109,2026-07-29T19:56:39.344+08:00,819,1.638000,1,1019,14,996,2,19.000000,14.000000,-4.000000,2.000000
136110,2026-07-29T19:56:39.344+08:00,820,1.640000,1,1020,14,999,2,20.000000,14.000000,-1.000000,2.000000
136111,2026-07-29T19:56:39.344+08:00,821,1.642000,1,994,14,1002,2,-6.000000,14.000000,2.000000,2.000000
136112,2026-07-29T19:56:39.344+08:00,822,1.644000,1,964,14,1003,2,-36.000000,14.000000,3.000000,2.000000
136113,2026-07-29T19:56:39.344+08:00,823,1.646000,1,971,16,1000,2,-29.000000,16.000000,0.000000,2.000000
136114,2026-07-29T19:56:39.348+08:00,824,1.648000,1,1014,16,996,2,14.000000,16.000000,-4.000000,2.000000
136115,2026-07-29T19:56:39.351+08:00,825,1.650000,1,1045,16,996,2,45.000000,16.000000,-4.000000,2.000000
136116,2026-07-29T19:56:39.351+08:00,826,1.652000,1,1026,16,1000,2,26.000000,16.000000,0.000000,2.000000
136117,2026-07-29T19:56:39.351+08:00,827,1.654000,1,981,16,1004,2,-19.000000,16.000000,4.000000,2.000000
136118,2026-07-29T19:56:39.354+08:00,828,1.656000,1,961,18,1004,2,-39.000000,18.000000,4.000000,2.000000
136119,2026-07-29T19:56:39.354+08:00,829,1.658000,1,981,18,998,2,-19.000000,18.000000,-2.000000,2.000000
136120,2026-07-29T19:56:39.354+08:00,830,1.660000,1,1010,18,995,2,10.000000,18.000000,-5.000000,2.000000
136121,2026-07-29T19:56:39.370+08:00,831,1.662000,1,1019,18,996,2,19.000000,18.000000,-4.000000,2.000000
136122,2026-07-29T19:56:39.370+08:00,832,1.664000,1,1012,18,1001,2,12.000000,18.000000,1.000000,2.000000
136123,2026-07-29T19:56:39.370+08:00,833,1.666000,1,1002,18,1003,2,2.000000,18.000000,3.000000,2.000000
136124,2026-07-29T19:56:39.370+08:00,834,1.668000,1,990,18,1002,2,-10.000000,18.000000,2.000000,2.000000
136125,2026-07-29T19:56:39.370+08:00,835,1.670000,1,984,18,999,2,-16.000000,18.000000,-1.000000,2.000000
136126,2026-07-29T19:56:39.370+08:00,836,1.672000,1,998,18,998,2,-2.000000,18.000000,-2.000000,2.000000
136127,2026-07-29T19:56:39.370+08:00,837,1.674000,1,1018,18,999,2,18.000000,18.000000,-1.000000,2.000000
136128,2026-07-29T19:56:39.370+08:00,838,1.676000,1,1009,18,1000,2,9.000000,18.000000,0.000000,2.000000
136129,2026-07-29T19:56:39.381+08:00,839,1.678000,1,975,20,1000,2,-25.000000,20.000000,0.000000,2.000000
136130,2026-07-29T19:56:39.381+08:00,840,1.680000,1,969,20,999,2,-31.000000,20.000000,-1.000000,2.000000
136131,2026-07-29T19:56:39.381+08:00,841,1.682000,1,1014,20,999,2,14.000000,20.000000,-1.000000,2.000000
136132,2026-07-29T19:56:39.387+08:00,842,1.684000,1,1054,20,1000,2,54.000000,20.000000,0.000000,2.000000
136133,2026-07-29T19:56:39.387+08:00,843,1.686000,1,1027,20,1000,2,27.000000,20.000000,0.000000,2.000000
136134,2026-07-29T19:56:39.387+08:00,844,1.688000,1,958,22,999,2,-42.000000,22.000000,-1.000000,2.000000
136135,2026-07-29T19:56:39.387+08:00,845,1.690000,1,934,22,999,2,-66.000000,22.000000,-1.000000,2.000000
136136,2026-07-29T19:56:39.400+08:00,846,1.692000,1,988,22,1000,2,-12.000000,22.000000,0.000000,2.000000
136137,2026-07-29T19:56:39.400+08:00,847,1.694000,1,1053,24,1000,2,53.000000,24.000000,0.000000,2.000000
136138,2026-07-29T19:56:39.400+08:00,848,1.696000,1,1053,24,999,2,53.000000,24.000000,-1.000000,2.000000
136139,2026-07-29T19:56:39.400+08:00,849,1.698000,1,995,24,997,2,-5.000000,24.000000,-3.000000,2.000000
136140,2026-07-29T19:56:39.400+08:00,850,1.700000,1,953,26,999,2,-47.000000,26.000000,-1.000000,2.000000
136141,2026-07-29T19:56:39.400+08:00,851,1.702000,1,970,26,1003,2,-30.000000,26.000000,3.000000,2.000000
136142,2026-07-29T19:56:39.400+08:00,852,1.704000,1,1015,26,1004,2,15.000000,26.000000,4.000000,2.000000
136143,2026-07-29T19:56:39.423+08:00,853,1.706000,1,1028,26,999,2,28.000000,26.000000,-1.000000,2.000000
136144,2026-07-29T19:56:39.423+08:00,854,1.708000,1,1003,26,994,2,3.000000,26.000000,-6.000000,2.000000
136145,2026-07-29T19:56:39.423+08:00,855,1.710000,1,981,26,995,2,-19.000000,26.000000,-5.000000,2.000000
136146,2026-07-29T19:56:39.423+08:00,856,1.712000,1,991,26,1002,2,-9.000000,26.000000,2.000000,2.000000
136147,2026-07-29T19:56:39.423+08:00,857,1.714000,1,1013,26,1006,2,13.000000,26.000000,6.000000,2.000000
136148,2026-07-29T19:56:39.423+08:00,858,1.716000,1,1014,26,1002,2,14.000000,26.000000,2.000000,2.000000
136149,2026-07-29T19:56:39.423+08:00,859,1.718000,1,996,26,996,2,-4.000000,26.000000,-4.000000,2.000000
136150,2026-07-29T19:56:39.423+08:00,860,1.720000,1,983,26,996,2,-17.000000,26.000000,-4.000000,2.000000
136151,2026-07-29T19:56:39.425+08:00,861,1.722000,1,989,26,1000,2,-11.000000,26.000000,0.000000,2.000000
136152,2026-07-29T19:56:39.425+08:00,862,1.724000,1,1002,26,1001,2,2.000000,26.000000,1.000000,2.000000
136153,2026-07-29T19:56:39.425+08:00,863,1.726000,1,1009,26,999,2,9.000000,26.000000,-1.000000,2.000000
136154,2026-07-29T19:56:39.427+08:00,864,1.728000,1,1007,26,998,2,7.000000,26.000000,-2.000000,2.000000
136155,2026-07-29T19:56:39.427+08:00,865,1.730000,1,1006,26,1000,2,6.000000,26.000000,0.000000,2.000000
136156,2026-07-29T19:56:39.427+08:00,866,1.732000,1,1005,26,1002,2,5.000000,26.000000,2.000000,2.000000
136157,2026-07-29T19:56:39.430+08:00,867,1.734000,1,998,26,1001,2,-2.000000,26.000000,1.000000,2.000000
136158,2026-07-29T19:56:39.430+08:00,868,1.736000,1,979,26,997,2,-21.000000,26.000000,-3.000000,2.000000
136159,2026-07-29T19:56:39.447+08:00,869,1.738000,1,969,28,997,2,-31.000000,28.000000,-3.000000,2.000000
136160,2026-07-29T19:56:39.447+08:00,870,1.740000,1,994,28,999,2,-6.000000,28.000000,-1.000000,2.000000
136161,2026-07-29T19:56:39.447+08:00,871,1.742000,1,1041,28,1002,2,41.000000,28.000000,2.000000,2.000000
136162,2026-07-29T19:56:39.447+08:00,872,1.744000,1,1056,28,1001,2,56.000000,28.000000,1.000000,2.000000
136163,2026-07-29T19:56:39.447+08:00,873,1.746000,1,1008,30,999,2,8.000000,30.000000,-1.000000,2.000000
136164,2026-07-29T19:56:39.447+08:00,874,1.748000,1,940,30,998,2,-60.000000,30.000000,-2.000000,2.000000
136165,2026-07-29T19:56:39.447+08:00,875,1.750000,1,930,32,999,2,-70.000000,32.000000,-1.000000,2.000000
136166,2026-07-29T19:56:39.459+08:00,876,1.752000,1,994,32,1000,2,-6.000000,32.000000,0.000000,2.000000
136167,2026-07-29T19:56:39.459+08:00,877,1.754000,1,1063,32,1000,2,63.000000,32.000000,0.000000,2.000000
136168,2026-07-29T19:56:39.459+08:00,878,1.756000,1,1063,32,999,2,63.000000,32.000000,-1.000000,2.000000
136169,2026-07-29T19:56:39.459+08:00,879,1.758000,1,1002,34,999,2,2.000000,34.000000,-1.000000,2.000000
136170,2026-07-29T19:56:39.459+08:00,880,1.760000,1,949,34,999,2,-51.000000,34.000000,-1.000000,2.000000
136171,2026-07-29T19:56:39.459+08:00,881,1.762000,1,952,34,1000,2,-48.000000,34.000000,0.000000,2.000000
136172,2026-07-29T19:56:39.461+08:00,882,1.764000,1,992,34,1001,2,-8.000000,34.000000,1.000000,2.000000
136173,2026-07-29T19:56:39.461+08:00,883,1.766000,1,1024,34,1000,2,24.000000,34.000000,0.000000,2.000000
136174,2026-07-29T19:56:39.478+08:00,884,1.768000,1,1031,36,999,2,31.000000,36.000000,-1.000000,2.000000
136175,2026-07-29T19:56:39.478+08:00,885,1.770000,1,1020,36,997,2,20.000000,36.000000,-3.000000,2.000000
136176,2026-07-29T19:56:39.478+08:00,886,1.772000,1,1000,36,997,2,0.000000,36.000000,-3.000000,2.000000
136177,2026-07-29T19:56:39.478+08:00,887,1.774000,1,977,36,1001,2,-23.000000,36.000000,1.000000,2.000000
136178,2026-07-29T19:56:39.478+08:00,888,1.776000,1,967,36,1005,2,-33.000000,36.000000,5.000000,2.000000
136179,2026-07-29T19:56:39.478+08:00,889,1.778000,1,984,36,1002,2,-16.000000,36.000000,2.000000,2.000000
136180,2026-07-29T19:56:39.478+08:00,890,1.780000,1,1019,36,996,2,19.000000,36.000000,-4.000000,2.000000
136181,2026-07-29T19:56:39.507+08:00,891,1.782000,1,1036,36,993,2,36.000000,36.000000,-7.000000,2.000000
136182,2026-07-29T19:56:39.507+08:00,892,1.784000,1,1017,36,997,2,17.000000,36.000000,-3.000000,2.000000
136183,2026-07-29T19:56:39.507+08:00,893,1.786000,1,984,36,1003,2,-16.000000,36.000000,3.000000,2.000000
136184,2026-07-29T19:56:39.507+08:00,894,1.788000,1,973,36,1005,2,-27.000000,36.000000,5.000000,2.000000
136185,2026-07-29T19:56:39.507+08:00,895,1.790000,1,989,36,1001,2,-11.000000,36.000000,1.000000,2.000000
136186,2026-07-29T19:56:39.507+08:00,896,1.792000,1,1006,36,996,2,6.000000,36.000000,-4.000000,2.000000
136187,2026-07-29T19:56:39.507+08:00,897,1.794000,1,1005,36,997,2,5.000000,36.000000,-3.000000,2.000000
136188,2026-07-29T19:56:39.507+08:00,898,1.796000,1,1002,36,1000,2,2.000000,36.000000,0.000000,2.000000
136189,2026-07-29T19:56:39.507+08:00,899,1.798000,1,1009,36,1001,2,9.000000,36.000000,1.000000,2.000000
136190,2026-07-29T19:56:39.507+08:00,900,1.800000,1,1013,36,998,2,13.000000,36.000000,-2.000000,2.000000
136191,2026-07-29T19:56:39.507+08:00,901,1.802000,1,1000,36,996,2,0.000000,36.000000,-4.000000,2.000000
136192,2026-07-29T19:56:39.507+08:00,902,1.804000,1,981,36,1001,2,-19.000000,36.000000,1.000000,2.000000
136193,2026-07-29T19:56:39.507+08:00,903,1.806000,1,978,36,1006,2,-22.000000,36.000000,6.000000,2.000000
136194,2026-07-29T19:56:39.507+08:00,904,1.808000,1,996,36,1003,2,-4.000000,36.000000,3.000000,2.000000
136195,2026-07-29T19:56:39.507+08:00,905,1.810000,1,1016,36,994,2,16.000000,36.000000,-6.000000,2.000000
136196,2026-07-29T19:56:39.515+08:00,906,1.812000,1,1019,36,990,2,19.000000,36.000000,-10.000000,2.000000
136197,2026-07-29T19:56:39.515+08:00,907,1.814000,1,1007,36,998,2,7.000000,36.000000,-2.000000,2.000000
136198,2026-07-29T19:56:39.515+08:00,908,1.816000,1,995,36,1007,2,-5.000000,36.000000,7.000000,2.000000
136199,2026-07-29T19:56:39.518+08:00,909,1.818000,1,988,36,1008,2,-12.000000,36.000000,8.000000,2.000000
136200,2026-07-29T19:56:39.518+08:00,910,1.820000,1,985,36,1000,2,-15.000000,36.000000,0.000000,2.000000
136201,2026-07-29T19:56:39.518+08:00,911,1.822000,1,991,36,993,2,-9.000000,36.000000,-7.000000,2.000000
136202,2026-07-29T19:56:39.520+08:00,912,1.824000,1,1007,36,994,2,7.000000,36.000000,-6.000000,2.000000
136203,2026-07-29T19:56:39.520+08:00,913,1.826000,1,1021,36,1000,2,21.000000,36.000000,0.000000,2.000000
136204,2026-07-29T19:56:39.535+08:00,914,1.828000,1,1013,36,1004,2,13.000000,36.000000,4.000000,2.000000
136205,2026-07-29T19:56:39.535+08:00,915,1.830000,1,990,36,1002,2,-10.000000,36.000000,2.000000,2.000000
136206,2026-07-29T19:56:39.535+08:00,916,1.832000,1,980,36,998,2,-20.000000,36.000000,-2.000000,2.000000
136207,2026-07-29T19:56:39.547+08:00,917,1.834000,1,993,36,997,2,-7.000000,36.000000,-3.000000,2.000000
136208,2026-07-29T19:56:39.547+08:00,918,1.836000,1,1011,36,999,2,11.000000,36.000000,-1.000000,2.000000
136209,2026-07-29T19:56:39.547+08:00,919,1.838000,1,1008,36,1001,2,8.000000,36.000000,1.000000,2.000000
136210,2026-07-29T19:56:39.547+08:00,920,1.840000,1,992,36,1000,2,-8.000000,36.000000,0.000000,2.000000
136211,2026-07-29T19:56:39.550+08:00,921,1.842000,1,989,36,998,2,-11.000000,36.000000,-2.000000,2.000000
136212,2026-07-29T19:56:39.550+08:00,922,1.844000,1,1006,36,998,2,6.000000,36.000000,-2.000000,2.000000
136213,2026-07-29T19:56:39.550+08:00,923,1.846000,1,1019,36,999,2,19.000000,36.000000,-1.000000,2.000000
136214,2026-07-29T19:56:39.550+08:00,924,1.848000,1,1005,34,1001,2,5.000000,34.000000,1.000000,2.000000
136215,2026-07-29T19:56:39.550+08:00,925,1.850000,1,978,34,1001,2,-22.000000,34.000000,1.000000,2.000000
136216,2026-07-29T19:56:39.550+08:00,926,1.852000,1,974,34,999,2,-26.000000,34.000000,-1.000000,2.000000
136217,2026-07-29T19:56:39.567+08:00,927,1.854000,1,1004,34,998,2,4.000000,34.000000,-2.000000,2.000000
136218,2026-07-29T19:56:39.567+08:00,928,1.856000,1,1033,34,1000,2,33.000000,34.000000,0.000000,2.000000
136219,2026-07-29T19:56:39.567+08:00,929,1.858000,1,1021,34,1001,2,21.000000,34.000000,1.000000,2.000000
136220,2026-07-29T19:56:39.567+08:00,930,1.860000,1,981,36,998,2,-19.000000,36.000000,-2.000000,2.000000
136221,2026-07-29T19:56:39.567+08:00,931,1.862000,1,963,36,996,2,-37.000000,36.000000,-4.000000,2.000000
136222,2026-07-29T19:56:39.567+08:00,932,1.864000,1,990,36,999,2,-10.000000,36.000000,-1.000000,2.000000
136223,2026-07-29T19:56:39.567+08:00,933,1.866000,1,1029,36,1004,2,29.000000,36.000000,4.000000,2.000000
136224,2026-07-29T19:56:39.567+08:00,934,1.868000,1,1030,36,1005,2,30.000000,36.000000,5.000000,2.000000
136225,2026-07-29T19:56:39.567+08:00,935,1.870000,1,994,36,998,2,-6.000000,36.000000,-2.000000,2.000000
136226,2026-07-29T19:56:39.589+08:00,936,1.872000,1,968,36,992,2,-32.000000,36.000000,-8.000000,2.000000
136227,2026-07-29T19:56:39.589+08:00,937,1.874000,1,981,36,995,2,-19.000000,36.000000,-5.000000,2.000000
136228,2026-07-29T19:56:39.589+08:00,938,1.876000,1,1012,36,1003,2,12.000000,36.000000,3.000000,2.000000
136229,2026-07-29T19:56:39.589+08:00,939,1.878000,1,1025,36,1006,2,25.000000,36.000000,6.000000,2.000000
136230,2026-07-29T19:56:39.589+08:00,940,1.880000,1,1010,36,1001,2,10.000000,36.000000,1.000000,2.000000
136231,2026-07-29T19:56:39.589+08:00,941,1.882000,1,988,36,996,2,-12.000000,36.000000,-4.000000,2.000000
136232,2026-07-29T19:56:39.589+08:00,942,1.884000,1,979,38,996,2,-21.000000,38.000000,-4.000000,2.000000
136233,2026-07-29T19:56:39.589+08:00,943,1.886000,1,989,38,999,2,-11.000000,38.000000,-1.000000,2.000000
136234,2026-07-29T19:56:39.589+08:00,944,1.888000,1,1008,38,1001,2,8.000000,38.000000,1.000000,2.000000
136235,2026-07-29T19:56:39.589+08:00,945,1.890000,1,1019,38,1001,2,19.000000,38.000000,1.000000,2.000000
136236,2026-07-29T19:56:39.589+08:00,946,1.892000,1,1009,38,1000,2,9.000000,38.000000,0.000000,2.000000
136237,2026-07-29T19:56:39.592+08:00,947,1.894000,1,989,38,999,2,-11.000000,38.000000,-1.000000,2.000000
136238,2026-07-29T19:56:39.592+08:00,948,1.896000,1,982,38,999,2,-18.000000,38.000000,-1.000000,2.000000
136239,2026-07-29T19:56:39.592+08:00,949,1.898000,1,995,38,1000,2,-5.000000,38.000000,0.000000,2.000000
136240,2026-07-29T19:56:39.594+08:00,950,1.900000,1,1011,36,1000,2,11.000000,36.000000,0.000000,2.000000
136241,2026-07-29T19:56:39.611+08:00,951,1.902000,1,1010,36,999,2,10.000000,36.000000,-1.000000,2.000000
136242,2026-07-29T19:56:39.611+08:00,952,1.904000,1,998,36,998,2,-2.000000,36.000000,-2.000000,2.000000
136243,2026-07-29T19:56:39.611+08:00,953,1.906000,1,991,36,999,2,-9.000000,36.000000,-1.000000,2.000000
136244,2026-07-29T19:56:39.611+08:00,954,1.908000,1,995,36,1002,2,-5.000000,36.000000,2.000000,2.000000
136245,2026-07-29T19:56:39.611+08:00,955,1.910000,1,1002,36,1003,2,2.000000,36.000000,3.000000,2.000000
136246,2026-07-29T19:56:39.611+08:00,956,1.912000,1,1004,34,1000,2,4.000000,34.000000,0.000000,2.000000
136247,2026-07-29T19:56:39.611+08:00,957,1.914000,1,1002,34,996,2,2.000000,34.000000,-4.000000,2.000000
136248,2026-07-29T19:56:39.611+08:00,958,1.916000,1,999,34,995,2,-1.000000,34.000000,-5.000000,2.000000
136249,2026-07-29T19:56:39.625+08:00,959,1.918000,1,996,34,1000,2,-4.000000,34.000000,0.000000,2.000000
136250,2026-07-29T19:56:39.627+08:00,960,1.920000,1,995,34,1004,2,-5.000000,34.000000,4.000000,2.000000
136251,2026-07-29T19:56:39.627+08:00,961,1.922000,1,997,34,1004,2,-3.000000,34.000000,4.000000,2.000000
136252,2026-07-29T19:56:39.627+08:00,962,1.924000,1,1003,34,1000,2,3.000000,34.000000,0.000000,2.000000
136253,2026-07-29T19:56:39.627+08:00,963,1.926000,1,1007,34,995,2,7.000000,34.000000,-5.000000,2.000000
136254,2026-07-29T19:56:39.627+08:00,964,1.928000,1,1004,34,995,2,4.000000,34.000000,-5.000000,2.000000
136255,2026-07-29T19:56:39.627+08:00,965,1.930000,1,997,34,1000,2,-3.000000,34.000000,0.000000,2.000000
136256,2026-07-29T19:56:39.670+08:00,966,1.932000,1,992,34,1004,2,-8.000000,34.000000,4.000000,2.000000
136257,2026-07-29T19:56:39.670+08:00,967,1.934000,1,990,34,1003,2,-10.000000,34.000000,3.000000,2.000000
136258,2026-07-29T19:56:39.670+08:00,968,1.936000,1,995,32,999,2,-5.000000,32.000000,-1.000000,2.000000
136259,2026-07-29T19:56:39.670+08:00,969,1.938000,1,1007,32,996,2,7.000000,32.000000,-4.000000,2.000000
136260,2026-07-29T19:56:39.670+08:00,970,1.940000,1,1018,32,998,2,18.000000,32.000000,-2.000000,2.000000
136261,2026-07-29T19:56:39.670+08:00,971,1.942000,1,1013,32,1001,2,13.000000,32.000000,1.000000,2.000000
136262,2026-07-29T19:56:39.670+08:00,972,1.944000,1,989,32,1002,2,-11.000000,32.000000,2.000000,2.000000
136263,2026-07-29T19:56:39.670+08:00,973,1.946000,1,971,30,999,2,-29.000000,30.000000,-1.000000,2.000000
136264,2026-07-29T19:56:39.670+08:00,974,1.948000,1,982,30,997,2,-18.000000,30.000000,-3.000000,2.000000
136265,2026-07-29T19:56:39.670+08:00,975,1.950000,1,1013,30,999,2,13.000000,30.000000,-1.000000,2.000000
136266,2026-07-29T19:56:39.670+08:00,976,1.952000,1,1028,30,1001,2,28.000000,30.000000,1.000000,2.000000
136267,2026-07-29T19:56:39.670+08:00,977,1.954000,1,1013,30,1001,2,13.000000,30.000000,1.000000,2.000000
136268,2026-07-29T19:56:39.670+08:00,978,1.956000,1,990,30,999,2,-10.000000,30.000000,-1.000000,2.000000
136269,2026-07-29T19:56:39.670+08:00,979,1.958000,1,984,30,999,2,-16.000000,30.000000,-1.000000,2.000000
136270,2026-07-29T19:56:39.670+08:00,980,1.960000,1,991,30,1000,2,-9.000000,30.000000,0.000000,2.000000
136271,2026-07-29T19:56:39.670+08:00,981,1.962000,1,997,28,1000,2,-3.000000,28.000000,0.000000,2.000000
136272,2026-07-29T19:56:39.670+08:00,982,1.964000,1,999,28,997,2,-1.000000,28.000000,-3.000000,2.000000
136273,2026-07-29T19:56:39.670+08:00,983,1.966000,1,1007,28,998,2,7.000000,28.000000,-2.000000,2.000000
136274,2026-07-29T19:56:39.670+08:00,984,1.968000,1,1018,28,1001,2,18.000000,28.000000,1.000000,2.000000
136275,2026-07-29T19:56:39.670+08:00,985,1.970000,1,1013,28,1003,2,13.000000,28.000000,3.000000,2.000000
136276,2026-07-29T19:56:39.670+08:00,986,1.972000,1,987,28,1001,2,-13.000000,28.000000,1.000000,2.000000
136277,2026-07-29T19:56:39.671+08:00,987,1.974000,1,966,30,996,2,-34.000000,30.000000,-4.000000,2.000000
136278,2026-07-29T19:56:39.671+08:00,988,1.976000,1,981,30,995,2,-19.000000,30.000000,-5.000000,2.000000
136279,2026-07-29T19:56:39.682+08:00,989,1.978000,1,1022,30,1000,2,22.000000,30.000000,0.000000,2.000000
136280,2026-07-29T19:56:39.682+08:00,990,1.980000,1,1041,30,1004,2,41.000000,30.000000,4.000000,2.000000
136281,2026-07-29T19:56:39.682+08:00,991,1.982000,1,1013,30,1002,2,13.000000,30.000000,2.000000,2.000000
136282,2026-07-29T19:56:39.689+08:00,992,1.984000,1,969,30,996,2,-31.000000,30.000000,-4.000000,2.000000
136283,2026-07-29T19:56:39.689+08:00,993,1.986000,1,962,30,995,2,-38.000000,30.000000,-5.000000,2.000000
136284,2026-07-29T19:56:39.689+08:00,994,1.988000,1,998,30,1000,2,-2.000000,30.000000,0.000000,2.000000
136285,2026-07-29T19:56:39.689+08:00,995,1.990000,1,1029,32,1004,2,29.000000,32.000000,4.000000,2.000000
136286,2026-07-29T19:56:39.699+08:00,996,1.992000,1,1019,32,1001,2,19.000000,32.000000,1.000000,2.000000
136287,2026-07-29T19:56:39.699+08:00,997,1.994000,1,988,30,996,2,-12.000000,30.000000,-4.000000,2.000000
136288,2026-07-29T19:56:39.699+08:00,998,1.996000,1,981,32,996,2,-19.000000,32.000000,-4.000000,2.000000
136289,2026-07-29T19:56:39.699+08:00,999,1.998000,1,1004,30,1001,2,4.000000,30.000000,1.000000,2.000000
136290,2026-07-29T19:56:39.699+08:00,1000,2.000000,1,1018,30,1003,2,18.000000,30.000000,3.000000,2.000000
136291,2026-07-29T19:56:39.699+08:00,1001,2.002000,1,1001,30,1001,2,1.000000,30.000000,1.000000,2.000000
136292,2026-07-29T19:56:39.705+08:00,1002,2.004000,1,978,30,997,2,-22.000000,30.000000,-3.000000,2.000000
136293,2026-07-29T19:56:39.705+08:00,1003,2.006000,1,985,28,996,2,-15.000000,28.000000,-4.000000,2.000000
136294,2026-07-29T19:56:39.749+08:00,1004,2.008000,1,1013,28,998,2,13.000000,28.000000,-2.000000,2.000000
136295,2026-07-29T19:56:39.749+08:00,1005,2.010000,1,1023,28,1001,2,23.000000,28.000000,1.000000,2.000000
136296,2026-07-29T19:56:39.749+08:00,1006,2.012000,1,1002,26,1003,2,2.000000,26.000000,3.000000,2.000000
136297,2026-07-29T19:56:39.749+08:00,1007,2.014000,1,980,28,1001,2,-20.000000,28.000000,1.000000,2.000000
136298,2026-07-29T19:56:39.749+08:00,1008,2.016000,1,985,26,998,4,-15.000000,26.000000,-2.000000,4.000000
136299,2026-07-29T19:56:39.749+08:00,1009,2.018000,1,1009,26,996,4,9.000000,26.000000,-4.000000,4.000000
136300,2026-07-29T19:56:39.749+08:00,1010,2.020000,1,1016,26,998,4,16.000000,26.000000,-2.000000,4.000000
136301,2026-07-29T19:56:39.750+08:00,1011,2.022000,1,999,26,1001,4,-1.000000,26.000000,1.000000,4.000000
136302,2026-07-29T19:56:39.750+08:00,1012,2.024000,1,983,26,1002,4,-17.000000,26.000000,2.000000,4.000000
136303,2026-07-29T19:56:39.750+08:00,1013,2.026000,1,991,26,1000,4,-9.000000,26.000000,0.000000,4.000000
136304,2026-07-29T19:56:39.750+08:00,1014,2.028000,1,1013,26,999,4,13.000000,26.000000,-1.000000,4.000000
136305,2026-07-29T19:56:39.750+08:00,1015,2.030000,1,1019,26,998,4,19.000000,26.000000,-2.000000,4.000000
136306,2026-07-29T19:56:39.750+08:00,1016,2.032000,1,1003,26,999,2,3.000000,26.000000,-1.000000,2.000000
136307,2026-07-29T19:56:39.750+08:00,1017,2.034000,1,983,26,999,2,-17.000000,26.000000,-1.000000,2.000000
136308,2026-07-29T19:56:39.750+08:00,1018,2.036000,1,979,26,999,2,-21.000000,26.000000,-1.000000,2.000000
136309,2026-07-29T19:56:39.750+08:00,1019,2.038000,1,991,24,1001,2,-9.000000,24.000000,1.000000,2.000000
136310,2026-07-29T19:56:39.750+08:00,1020,2.040000,1,1012,24,1002,2,12.000000,24.000000,2.000000,2.000000
136311,2026-07-29T19:56:39.750+08:00,1021,2.042000,1,1028,24,1000,2,28.000000,24.000000,0.000000,2.000000
136312,2026-07-29T19:56:39.750+08:00,1022,2.044000,1,1021,24,996,2,21.000000,24.000000,-4.000000,2.000000
136313,2026-07-29T19:56:39.750+08:00,1023,2.046000,1,989,24,995,2,-11.000000,24.000000,-5.000000,2.000000
136314,2026-07-29T19:56:39.750+08:00,1024,2.048000,1,960,26,1001,2,-40.000000,26.000000,1.000000,2.000000
136315,2026-07-29T19:56:39.750+08:00,1025,2.050000,1,971,26,1005,2,-29.000000,26.000000,5.000000,2.000000
136316,2026-07-29T19:56:39.756+08:00,1026,2.052000,1,1016,26,1003,2,16.000000,26.000000,3.000000,2.000000
136317,2026-07-29T19:56:39.756+08:00,1027,2.054000,1,1044,26,996,2,44.000000,26.000000,-4.000000,2.000000
136318,2026-07-29T19:56:39.756+08:00,1028,2.056000,1,1023,26,994,2,23.000000,26.000000,-6.000000,2.000000
136319,2026-07-29T19:56:39.758+08:00,1029,2.058000,1,977,26,999,2,-23.000000,26.000000,-1.000000,2.000000
136320,2026-07-29T19:56:39.758+08:00,1030,2.060000,1,962,28,1004,2,-38.000000,28.000000,4.000000,2.000000
136321,2026-07-29T19:56:39.758+08:00,1031,2.062000,1,989,28,1003,2,-11.000000,28.000000,3.000000,2.000000
136322,2026-07-29T19:56:39.760+08:00,1032,2.064000,1,1022,28,998,2,22.000000,28.000000,-2.000000,2.000000
136323,2026-07-29T19:56:39.760+08:00,1033,2.066000,1,1023,28,997,2,23.000000,28.000000,-3.000000,2.000000
136324,2026-07-29T19:56:39.771+08:00,1034,2.068000,1,1000,28,1001,2,0.000000,28.000000,1.000000,2.000000
136325,2026-07-29T19:56:39.771+08:00,1035,2.070000,1,983,28,1002,2,-17.000000,28.000000,2.000000,2.000000
136326,2026-07-29T19:56:39.771+08:00,1036,2.072000,1,986,28,999,2,-14.000000,28.000000,-1.000000,2.000000
136327,2026-07-29T19:56:39.775+08:00,1037,2.074000,1,1000,28,996,2,0.000000,28.000000,-4.000000,2.000000
136328,2026-07-29T19:56:39.775+08:00,1038,2.076000,1,1010,28,998,2,10.000000,28.000000,-2.000000,2.000000
136329,2026-07-29T19:56:39.775+08:00,1039,2.078000,1,1010,28,1002,2,10.000000,28.000000,2.000000,2.000000
136330,2026-07-29T19:56:39.775+08:00,1040,2.080000,1,1002,28,1004,2,2.000000,28.000000,4.000000,2.000000
136331,2026-07-29T19:56:39.788+08:00,1041,2.082000,1,992,26,1000,2,-8.000000,26.000000,0.000000,2.000000
136332,2026-07-29T19:56:39.788+08:00,1042,2.084000,1,988,26,996,2,-12.000000,26.000000,-4.000000,2.000000
136333,2026-07-29T19:56:39.788+08:00,1043,2.086000,1,994,26,995,2,-6.000000,26.000000,-5.000000,2.000000
136334,2026-07-29T19:56:39.804+08:00,1044,2.088000,1,1004,26,998,2,4.000000,26.000000,-2.000000,2.000000
136335,2026-07-29T19:56:39.804+08:00,1045,2.090000,1,1012,26,1002,2,12.000000,26.000000,2.000000,2.000000
136336,2026-07-29T19:56:39.804+08:00,1046,2.092000,1,1011,26,1003,2,11.000000,26.000000,3.000000,2.000000
136337,2026-07-29T19:56:39.804+08:00,1047,2.094000,1,999,26,1001,2,-1.000000,26.000000,1.000000,2.000000
136338,2026-07-29T19:56:39.804+08:00,1048,2.096000,1,983,26,998,2,-17.000000,26.000000,-2.000000,2.000000
136339,2026-07-29T19:56:39.804+08:00,1049,2.098000,1,980,26,996,2,-20.000000,26.000000,-4.000000,2.000000
136340,2026-07-29T19:56:39.804+08:00,1050,2.100000,1,999,26,998,2,-1.000000,26.000000,-2.000000,2.000000
136341,2026-07-29T19:56:39.804+08:00,1051,2.102000,1,1024,26,1000,2,24.000000,26.000000,0.000000,2.000000
136342,2026-07-29T19:56:39.804+08:00,1052,2.104000,1,1024,28,1001,2,24.000000,28.000000,1.000000,2.000000
136343,2026-07-29T19:56:39.804+08:00,1053,2.106000,1,996,26,1000,2,-4.000000,26.000000,0.000000,2.000000
136344,2026-07-29T19:56:39.804+08:00,1054,2.108000,1,973,26,999,2,-27.000000,26.000000,-1.000000,2.000000
136345,2026-07-29T19:56:39.827+08:00,1055,2.110000,1,982,28,1001,2,-18.000000,28.000000,1.000000,2.000000
136346,2026-07-29T19:56:39.827+08:00,1056,2.112000,1,1008,26,1001,2,8.000000,26.000000,1.000000,2.000000
136347,2026-07-29T19:56:39.827+08:00,1057,2.114000,1,1017,26,998,2,17.000000,26.000000,-2.000000,2.000000
136348,2026-07-29T19:56:39.827+08:00,1058,2.116000,1,1006,26,996,2,6.000000,26.000000,-4.000000,2.000000
136349,2026-07-29T19:56:39.827+08:00,1059,2.118000,1,995,26,998,2,-5.000000,26.000000,-2.000000,2.000000
136350,2026-07-29T19:56:39.827+08:00,1060,2.120000,1,998,26,1002,2,-2.000000,26.000000,2.000000,2.000000
136351,2026-07-29T19:56:39.827+08:00,1061,2.122000,1,1000,26,1004,2,0.000000,26.000000,4.000000,2.000000
136352,2026-07-29T19:56:39.827+08:00,1062,2.124000,1,993,24,1000,2,-7.000000,24.000000,0.000000,2.000000
136353,2026-07-29T19:56:39.827+08:00,1063,2.126000,1,989,26,996,2,-11.000000,26.000000,-4.000000,2.000000
136354,2026-07-29T19:56:39.828+08:00,1064,2.128000,1,1000,24,997,2,0.000000,24.000000,-3.000000,2.000000
136355,2026-07-29T19:56:39.831+08:00,1065,2.130000,1,1016,24,1001,2,16.000000,24.000000,1.000000,2.000000
136356,2026-07-29T19:56:39.831+08:00,1066,2.132000,1,1013,24,1001,2,13.000000,24.000000,1.000000,2.000000
136357,2026-07-29T19:56:39.831+08:00,1067,2.134000,1,993,24,999,2,-7.000000,24.000000,-1.000000,2.000000
136358,2026-07-29T19:56:39.835+08:00,1068,2.136000,1,980,24,998,2,-20.000000,24.000000,-2.000000,2.000000
136359,2026-07-29T19:56:39.835+08:00,1069,2.138000,1,990,24,1001,2,-10.000000,24.000000,1.000000,2.000000
136360,2026-07-29T19:56:39.835+08:00,1070,2.140000,1,1010,24,1003,2,10.000000,24.000000,3.000000,2.000000
136361,2026-07-29T19:56:39.849+08:00,1071,2.142000,1,1014,24,1000,2,14.000000,24.000000,0.000000,2.000000
136362,2026-07-29T19:56:39.849+08:00,1072,2.144000,1,1001,24,996,2,1.000000,24.000000,-4.000000,2.000000
136363,2026-07-29T19:56:39.849+08:00,1073,2.146000,1,990,24,996,2,-10.000000,24.000000,-4.000000,2.000000
136364,2026-07-29T19:56:39.849+08:00,1074,2.148000,1,993,24,1001,2,-7.000000,24.000000,1.000000,2.000000
136365,2026-07-29T19:56:39.849+08:00,1075,2.150000,1,1003,24,1003,2,3.000000,24.000000,3.000000,2.000000
136366,2026-07-29T19:56:39.849+08:00,1076,2.152000,1,1005,24,1002,2,5.000000,24.000000,2.000000,2.000000
136367,2026-07-29T19:56:39.858+08:00,1077,2.154000,1,999,24,998,2,-1.000000,24.000000,-2.000000,2.000000
136368,2026-07-29T19:56:39.858+08:00,1078,2.156000,1,996,24,997,2,-4.000000,24.000000,-3.000000,2.000000
136369,2026-07-29T19:56:39.881+08:00,1079,2.158000,1,999,24,1000,2,-1.000000,24.000000,0.000000,2.000000
136370,2026-07-29T19:56:39.881+08:00,1080,2.160000,1,1002,24,1001,2,2.000000,24.000000,1.000000,2.000000
136371,2026-07-29T19:56:39.881+08:00,1081,2.162000,1,1001,24,999,2,1.000000,24.000000,-1.000000,2.000000
136372,2026-07-29T19:56:39.881+08:00,1082,2.164000,1,998,24,997,2,-2.000000,24.000000,-3.000000,2.000000
136373,2026-07-29T19:56:39.881+08:00,1083,2.166000,1,998,24,1000,2,-2.000000,24.000000,0.000000,2.000000
136374,2026-07-29T19:56:39.881+08:00,1084,2.168000,1,1000,24,1004,2,0.000000,24.000000,4.000000,2.000000
136375,2026-07-29T19:56:39.881+08:00,1085,2.170000,1,1001,24,1003,2,1.000000,24.000000,3.000000,2.000000
136376,2026-07-29T19:56:39.881+08:00,1086,2.172000,1,997,24,997,2,-3.000000,24.000000,-3.000000,2.000000
136377,2026-07-29T19:56:39.881+08:00,1087,2.174000,1,994,24,994,2,-6.000000,24.000000,-6.000000,2.000000
136378,2026-07-29T19:56:39.881+08:00,1088,2.176000,1,1000,24,997,2,0.000000,24.000000,-3.000000,2.000000
136379,2026-07-29T19:56:39.881+08:00,1089,2.178000,1,1009,24,1003,2,9.000000,24.000000,3.000000,2.000000
136380,2026-07-29T19:56:39.881+08:00,1090,2.180000,1,1007,24,1004,2,7.000000,24.000000,4.000000,2.000000
136381,2026-07-29T19:56:39.881+08:00,1091,2.182000,1,992,24,1000,2,-8.000000,24.000000,0.000000,2.000000
136382,2026-07-29T19:56:39.881+08:00,1092,2.184000,1,983,24,996,2,-17.000000,24.000000,-4.000000,2.000000
136383,2026-07-29T19:56:39.881+08:00,1093,2.186000,1,996,24,997,2,-4.000000,24.000000,-3.000000,2.000000
136384,2026-07-29T19:56:39.904+08:00,1094,2.188000,1,1015,24,1002,2,15.000000,24.000000,2.000000,2.000000
136385,2026-07-29T19:56:39.904+08:00,1095,2.190000,1,1015,24,1003,2,15.000000,24.000000,3.000000,2.000000
136386,2026-07-29T19:56:39.904+08:00,1096,2.192000,1,995,24,998,2,-5.000000,24.000000,-2.000000,2.000000
136387,2026-07-29T19:56:39.904+08:00,1097,2.194000,1,980,24,995,2,-20.000000,24.000000,-5.000000,2.000000
136388,2026-07-29T19:56:39.904+08:00,1098,2.196000,1,988,24,998,2,-12.000000,24.000000,-2.000000,2.000000
136389,2026-07-29T19:56:39.904+08:00,1099,2.198000,1,1008,24,1004,2,8.000000,24.000000,4.000000,2.000000
136390,2026-07-29T19:56:39.904+08:00,1100,2.200000,1,1017,24,1004,2,17.000000,24.000000,4.000000,2.000000
136391,2026-07-29T19:56:39.904+08:00,1101,2.202000,1,1006,24,999,2,6.000000,24.000000,-1.000000,2.000000
136392,2026-07-29T19:56:39.906+08:00,1102,2.204000,1,990,24,995,2,-10.000000,24.000000,-5.000000,2.000000
136393,2026-07-29T19:56:39.906+08:00,1103,2.206000,1,988,24,997,2,-12.000000,24.000000,-3.000000,2.000000
136394,2026-07-29T19:56:39.906+08:00,1104,2.208000,1,999,22,1001,2,-1.000000,22.000000,1.000000,2.000000
136395,2026-07-29T19:56:39.909+08:00,1105,2.210000,1,1007,22,1003,2,7.000000,22.000000,3.000000,2.000000
136396,2026-07-29T19:56:39.909+08:00,1106,2.212000,1,1001,22,1001,2,1.000000,22.000000,1.000000,2.000000
136397,2026-07-29T19:56:39.909+08:00,1107,2.214000,1,994,22,998,2,-6.000000,22.000000,-2.000000,2.000000
136398,2026-07-29T19:56:39.911+08:00,1108,2.216000,1,998,22,998,2,-2.000000,22.000000,-2.000000,2.000000
136399,2026-07-29T19:56:39.924+08:00,1109,2.218000,1,1007,22,1000,2,7.000000,22.000000,0.000000,2.000000
136400,2026-07-29T19:56:39.924+08:00,1110,2.220000,1,1006,22,1001,2,6.000000,22.000000,1.000000,2.000000
136401,2026-07-29T19:56:39.924+08:00,1111,2.222000,1,996,22,999,2,-4.000000,22.000000,-1.000000,2.000000
136402,2026-07-29T19:56:39.924+08:00,1112,2.224000,1,990,22,997,2,-10.000000,22.000000,-3.000000,2.000000
136403,2026-07-29T19:56:39.924+08:00,1113,2.226000,1,994,22,998,2,-6.000000,22.000000,-2.000000,2.000000
136404,2026-07-29T19:56:39.924+08:00,1114,2.228000,1,1000,22,1001,2,0.000000,22.000000,1.000000,2.000000
136405,2026-07-29T19:56:39.924+08:00,1115,2.230000,1,1003,22,1003,2,3.000000,22.000000,3.000000,2.000000
136406,2026-07-29T19:56:39.936+08:00,1116,2.232000,1,1008,22,1001,2,8.000000,22.000000,1.000000,2.000000
136407,2026-07-29T19:56:39.941+08:00,1117,2.234000,1,1011,22,997,2,11.000000,22.000000,-3.000000,2.000000
136408,2026-07-29T19:56:39.941+08:00,1118,2.236000,1,1002,20,996,2,2.000000,20.000000,-4.000000,2.000000
136409,2026-07-29T19:56:39.941+08:00,1119,2.238000,1,985,20,998,2,-15.000000,20.000000,-2.000000,2.000000
136410,2026-07-29T19:56:39.941+08:00,1120,2.240000,1,978,20,1002,2,-22.000000,20.000000,2.000000,2.000000
136411,2026-07-29T19:56:39.941+08:00,1121,2.242000,1,993,20,1003,2,-7.000000,20.000000,3.000000,2.000000
136412,2026-07-29T19:56:39.941+08:00,1122,2.244000,1,1016,20,1001,2,16.000000,20.000000,1.000000,2.000000
136413,2026-07-29T19:56:39.941+08:00,1123,2.246000,1,1024,20,997,2,24.000000,20.000000,-3.000000,2.000000
136414,2026-07-29T19:56:39.957+08:00,1124,2.248000,1,1011,20,997,2,11.000000,20.000000,-3.000000,2.000000
136415,2026-07-29T19:56:39.957+08:00,1125,2.250000,1,989,20,999,2,-11.000000,20.000000,-1.000000,2.000000
136416,2026-07-29T19:56:39.957+08:00,1126,2.252000,1,977,20,1001,2,-23.000000,20.000000,1.000000,2.000000
136417,2026-07-29T19:56:39.957+08:00,1127,2.254000,1,982,20,1000,2,-18.000000,20.000000,0.000000,2.000000
136418,2026-07-29T19:56:39.957+08:00,1128,2.256000,1,1001,20,999,2,1.000000,20.000000,-1.000000,2.000000
136419,2026-07-29T19:56:39.957+08:00,1129,2.258000,1,1020,20,999,2,20.000000,20.000000,-1.000000,2.000000
136420,2026-07-29T19:56:39.957+08:00,1130,2.260000,1,1020,20,1000,2,20.000000,20.000000,0.000000,2.000000
136421,2026-07-29T19:56:39.977+08:00,1131,2.262000,1,1003,20,1000,2,3.000000,20.000000,0.000000,2.000000
136422,2026-07-29T19:56:39.977+08:00,1132,2.264000,1,985,20,999,2,-15.000000,20.000000,-1.000000,2.000000
136423,2026-07-29T19:56:39.977+08:00,1133,2.266000,1,982,20,999,2,-18.000000,20.000000,-1.000000,2.000000
136424,2026-07-29T19:56:39.977+08:00,1134,2.268000,1,995,20,998,2,-5.000000,20.000000,-2.000000,2.000000
136425,2026-07-29T19:56:39.977+08:00,1135,2.270000,1,1008,20,999,2,8.000000,20.000000,-1.000000,2.000000
136426,2026-07-29T19:56:39.977+08:00,1136,2.272000,1,1010,20,1000,2,10.000000,20.000000,0.000000,2.000000
136427,2026-07-29T19:56:39.977+08:00,1137,2.274000,1,1004,20,1002,2,4.000000,20.000000,2.000000,2.000000
136428,2026-07-29T19:56:39.977+08:00,1138,2.276000,1,998,20,1002,2,-2.000000,20.000000,2.000000,2.000000
136429,2026-07-29T19:56:39.980+08:00,1139,2.278000,1,995,20,1000,2,-5.000000,20.000000,0.000000,2.000000
136430,2026-07-29T19:56:39.980+08:00,1140,2.280000,1,994,20,996,2,-6.000000,20.000000,-4.000000,2.000000
136431,2026-07-29T19:56:39.980+08:00,1141,2.282000,1,997,20,995,2,-3.000000,20.000000,-5.000000,2.000000
136432,2026-07-29T19:56:39.983+08:00,1142,2.284000,1,1002,20,998,2,2.000000,20.000000,-2.000000,2.000000
136433,2026-07-29T19:56:39.983+08:00,1143,2.286000,1,1007,18,1004,2,7.000000,18.000000,4.000000,2.000000
136434,2026-07-29T19:56:39.983+08:00,1144,2.288000,1,1003,18,1005,2,3.000000,18.000000,5.000000,2.000000
136435,2026-07-29T19:56:39.984+08:00,1145,2.290000,1,995,18,1000,2,-5.000000,18.000000,0.000000,2.000000
136436,2026-07-29T19:56:40.002+08:00,1146,2.292000,1,992,18,994,2,-8.000000,18.000000,-6.000000,2.000000
136437,2026-07-29T19:56:40.002+08:00,1147,2.294000,1,1000,18,994,2,0.000000,18.000000,-6.000000,2.000000
136438,2026-07-29T19:56:40.002+08:00,1148,2.296000,1,1006,18,1000,2,6.000000,18.000000,0.000000,2.000000
136439,2026-07-29T19:56:40.002+08:00,1149,2.298000,1,1001,18,1004,2,1.000000,18.000000,4.000000,2.000000
136440,2026-07-29T19:56:40.002+08:00,1150,2.300000,1,994,18,1003,2,-6.000000,18.000000,3.000000,2.000000
136441,2026-07-29T19:56:40.002+08:00,1151,2.302000,1,996,18,999,2,-4.000000,18.000000,-1.000000,2.000000
136442,2026-07-29T19:56:40.002+08:00,1152,2.304000,1,1005,18,997,2,5.000000,18.000000,-3.000000,2.000000
136443,2026-07-29T19:56:40.002+08:00,1153,2.306000,1,1006,16,999,2,6.000000,16.000000,-1.000000,2.000000
136444,2026-07-29T19:56:40.013+08:00,1154,2.308000,1,997,16,1000,2,-3.000000,16.000000,0.000000,2.000000
136445,2026-07-29T19:56:40.013+08:00,1155,2.310000,1,991,16,999,2,-9.000000,16.000000,-1.000000,2.000000
136446,2026-07-29T19:56:40.013+08:00,1156,2.312000,1,998,16,999,2,-2.000000,16.000000,-1.000000,2.000000
136447,2026-07-29T19:56:40.013+08:00,1157,2.314000,1,1007,16,1001,2,7.000000,16.000000,1.000000,2.000000
136448,2026-07-29T19:56:40.051+08:00,1158,2.316000,1,1006,14,1001,2,6.000000,14.000000,1.000000,2.000000
136449,2026-07-29T19:56:40.051+08:00,1159,2.318000,1,997,14,999,2,-3.000000,14.000000,-1.000000,2.000000
136450,2026-07-29T19:56:40.051+08:00,1160,2.320000,1,992,14,998,2,-8.000000,14.000000,-2.000000,2.000000
136451,2026-07-29T19:56:40.051+08:00,1161,2.322000,1,998,14,1000,2,-2.000000,14.000000,0.000000,2.000000
136452,2026-07-29T19:56:40.051+08:00,1162,2.324000,1,1005,14,1000,2,5.000000,14.000000,0.000000,2.000000
136453,2026-07-29T19:56:40.051+08:00,1163,2.326000,1,1003,14,999,2,3.000000,14.000000,-1.000000,2.000000
