frame_index,host_receive_time,recording_sample_index,recording_elapsed_s,button_label,Channel1_raw,Channel2_raw,Channel 3_raw,Channel 4_raw,Channel1_display,Channel2_display,Channel 3_display,Channel 4_display
38960,2026-07-29T20:09:39.529+08:00,0,0.000000,0,999,4,997,2,-1.000000,4.000000,-3.000000,2.000000
38961,2026-07-29T20:09:39.529+08:00,1,0.002000,0,1008,4,1001,2,8.000000,4.000000,1.000000,2.000000
38962,2026-07-29T20:09:39.529+08:00,2,0.004000,0,1006,4,1003,2,6.000000,4.000000,3.000000,2.000000
38963,2026-07-29T20:09:39.541+08:00,3,0.006000,0,998,4,1001,2,-2.000000,4.000000,1.000000,2.000000
38964,2026-07-29T20:09:39.541+08:00,4,0.008000,0,993,4,998,2,-7.000000,4.000000,-2.000000,2.000000
38965,2026-07-29T20:09:39.541+08:00,5,0.010000,0,996,4,997,2,-4.000000,4.000000,-3.000000,2.000000
38966,2026-07-29T20:09:39.541+08:00,6,0.012000,0,1001,4,999,2,1.000000,4.000000,-1.000000,2.000000
38967,2026-07-29T20:09:39.541+08:00,7,0.014000,0,1002,4,1001,2,2.000000,4.000000,1.000000,2.000000
38968,2026-07-29T20:09:39.549+08:00,8,0.016000,0,1000,4,1001,2,0.000000,4.000000,1.000000,2.000000
38969,2026-07-29T20:09:39.549+08:00,9,0.018000,0,1000,4,999,2,0.000000,4.000000,-1.000000,2.000000
38970,2026-07-29T20:09:39.549+08:00,10,0.020000,0,1001,4,998,2,1.000000,4.000000,-2.000000,2.000000
38971,2026-07-29T20:09:39.549+08:00,11,0.022000,0,1001,4,999,2,1.000000,4.000000,-1.000000,2.000000
38972,2026-07-29T20:09:39.549+08:00,12,0.024000,0,997,4,1000,2,-3.000000,4.000000,0.000000,2.000000
38973,2026-07-29T20:09:39.549+08:00,13,0.026000,0,996,4,999,2,-4.000000,4.000000,-1.000000,2.000000
38974,2026-07-29T20:09:39.549+08:00,14,0.028000,0,999,4,999,2,-1.000000,4.000000,-1.000000,2.000000
38975,2026-07-29T20:09:39.568+08:00,15,0.030000,0,1003,4,1000,2,3.000000,4.000000,0.000000,2.000000
38976,2026-07-29T20:09:39.568+08:00,16,0.032000,0,1004,4,1000,2,4.000000,4.000000,0.000000,2.000000
38977,2026-07-29T20:09:39.568+08:00,17,0.034000,0,1001,4,1000,2,1.000000,4.000000,0.000000,2.000000
38978,2026-07-29T20:09:39.568+08:00,18,0.036000,0,996,4,998,2,-4.000000,4.000000,-2.000000,2.000000
38979,2026-07-29T20:09:39.568+08:00,19,0.038000,0,994,4,998,2,-6.000000,4.000000,-2.000000,2.000000
38980,2026-07-29T20:09:39.568+08:00,20,0.040000,0,998,4,1001,2,-2.000000,4.000000,1.000000,2.000000
38981,2026-07-29T20:09:39.568+08:00,21,0.042000,0,1005,4,1002,2,5.000000,4.000000,2.000000,2.000000
38982,2026-07-29T20:09:39.568+08:00,22,0.044000,0,1008,4,1000,2,8.000000,4.000000,0.000000,2.000000
38983,2026-07-29T20:09:39.583+08:00,23,0.046000,0,1001,4,997,2,1.000000,4.000000,-3.000000,2.000000
38984,2026-07-29T20:09:39.583+08:00,24,0.048000,0,991,4,997,2,-9.000000,4.000000,-3.000000,2.000000
38985,2026-07-29T20:09:39.583+08:00,25,0.050000,0,990,4,1000,2,-10.000000,4.000000,0.000000,2.000000
38986,2026-07-29T20:09:39.583+08:00,26,0.052000,0,1001,4,1002,2,1.000000,4.000000,2.000000,2.000000
38987,2026-07-29T20:09:39.583+08:00,27,0.054000,0,1010,4,1001,2,10.000000,4.000000,1.000000,2.000000
38988,2026-07-29T20:09:39.583+08:00,28,0.056000,0,1007,4,998,2,7.000000,4.000000,-2.000000,2.000000
38989,2026-07-29T20:09:39.583+08:00,29,0.058000,0,996,4,998,2,-4.000000,4.000000,-2.000000,2.000000
38990,2026-07-29T20:09:39.589+08:00,30,0.060000,0,990,4,999,2,-10.000000,4.000000,-1.000000,2.000000
38991,2026-07-29T20:09:39.589+08:00,31,0.062000,0,994,4,1000,2,-6.000000,4.000000,0.000000,2.000000
38992,2026-07-29T20:09:39.589+08:00,32,0.064000,0,1003,4,1000,2,3.000000,4.000000,0.000000,2.000000
38993,2026-07-29T20:09:39.592+08:00,33,0.066000,0,1007,4,1000,2,7.000000,4.000000,0.000000,2.000000
38994,2026-07-29T20:09:39.592+08:00,34,0.068000,0,1004,4,999,2,4.000000,4.000000,-1.000000,2.000000
38995,2026-07-29T20:09:39.592+08:00,35,0.070000,0,997,4,999,2,-3.000000,4.000000,-1.000000,2.000000
38996,2026-07-29T20:09:39.595+08:00,36,0.072000,0,994,4,999,2,-6.000000,4.000000,-1.000000,2.000000
38997,2026-07-29T20:09:39.595+08:00,37,0.074000,0,995,4,998,2,-5.000000,4.000000,-2.000000,2.000000
38998,2026-07-29T20:09:39.611+08:00,38,0.076000,0,1000,4,999,2,0.000000,4.000000,-1.000000,2.000000
38999,2026-07-29T20:09:39.612+08:00,39,0.078000,0,1004,4,1002,2,4.000000,4.000000,2.000000,2.000000
39000,2026-07-29T20:09:39.612+08:00,40,0.080000,0,1004,4,1003,2,4.000000,4.000000,3.000000,2.000000
39001,2026-07-29T20:09:39.612+08:00,41,0.082000,0,1000,4,999,2,0.000000,4.000000,-1.000000,2.000000
39002,2026-07-29T20:09:39.612+08:00,42,0.084000,0,995,4,995,2,-5.000000,4.000000,-5.000000,2.000000
39003,2026-07-29T20:09:39.612+08:00,43,0.086000,0,995,4,996,2,-5.000000,4.000000,-4.000000,2.000000
39004,2026-07-29T20:09:39.612+08:00,44,0.088000,0,999,4,1001,2,-1.000000,4.000000,1.000000,2.000000
39005,2026-07-29T20:09:39.628+08:00,45,0.090000,0,1004,4,1004,2,4.000000,4.000000,4.000000,2.000000
39006,2026-07-29T20:09:39.628+08:00,46,0.092000,0,1005,4,1002,2,5.000000,4.000000,2.000000,2.000000
39007,2026-07-29T20:09:39.628+08:00,47,0.094000,0,1000,4,998,2,0.000000,4.000000,-2.000000,2.000000
39008,2026-07-29T20:09:39.628+08:00,48,0.096000,0,995,4,996,2,-5.000000,4.000000,-4.000000,2.000000
39009,2026-07-29T20:09:39.628+08:00,49,0.098000,0,995,4,998,2,-5.000000,4.000000,-2.000000,2.000000
39010,2026-07-29T20:09:39.628+08:00,50,0.100000,0,999,4,1000,2,-1.000000,4.000000,0.000000,2.000000
39011,2026-07-29T20:09:39.641+08:00,51,0.102000,0,1003,4,1001,2,3.000000,4.000000,1.000000,2.000000
39012,2026-07-29T20:09:39.641+08:00,52,0.104000,0,1003,4,1001,2,3.000000,4.000000,1.000000,2.000000
39013,2026-07-29T20:09:39.641+08:00,53,0.106000,0,1001,4,1000,2,1.000000,4.000000,0.000000,2.000000
39014,2026-07-29T20:09:39.641+08:00,54,0.108000,0,998,4,998,2,-2.000000,4.000000,-2.000000,2.000000
39015,2026-07-29T20:09:39.641+08:00,55,0.110000,0,996,4,998,2,-4.000000,4.000000,-2.000000,2.000000
39016,2026-07-29T20:09:39.641+08:00,56,0.112000,0,996,4,1000,2,-4.000000,4.000000,0.000000,2.000000
39017,2026-07-29T20:09:39.641+08:00,57,0.114000,0,1000,4,1002,2,0.000000,4.000000,2.000000,2.000000
39018,2026-07-29T20:09:39.641+08:00,58,0.116000,0,1004,4,1001,2,4.000000,4.000000,1.000000,2.000000
39019,2026-07-29T20:09:39.641+08:00,59,0.118000,0,1004,6,997,2,4.000000,6.000000,-3.000000,2.000000
39020,2026-07-29T20:09:39.658+08:00,60,0.120000,0,999,6,995,2,-1.000000,6.000000,-5.000000,2.000000
39021,2026-07-29T20:09:39.658+08:00,61,0.122000,0,995,6,1000,2,-5.000000,6.000000,0.000000,2.000000
39022,2026-07-29T20:09:39.658+08:00,62,0.124000,0,996,6,1006,2,-4.000000,6.000000,6.000000,2.000000
39023,2026-07-29T20:09:39.658+08:00,63,0.126000,0,1001,6,1004,2,1.000000,6.000000,4.000000,2.000000
39024,2026-07-29T20:09:39.658+08:00,64,0.128000,0,1003,6,996,2,3.000000,6.000000,-4.000000,2.000000
39025,2026-07-29T20:09:39.658+08:00,65,0.130000,0,1001,6,992,2,1.000000,6.000000,-8.000000,2.000000
39026,2026-07-29T20:09:39.658+08:00,66,0.132000,0,998,6,996,2,-2.000000,6.000000,-4.000000,2.000000
39027,2026-07-29T20:09:39.658+08:00,67,0.134000,0,998,6,1004,2,-2.000000,6.000000,4.000000,2.000000
39028,2026-07-29T20:09:39.663+08:00,68,0.136000,0,999,6,1006,2,-1.000000,6.000000,6.000000,2.000000
39029,2026-07-29T20:09:39.663+08:00,69,0.138000,0,999,6,1001,2,-1.000000,6.000000,1.000000,2.000000
39030,2026-07-29T20:09:39.663+08:00,70,0.140000,0,999,6,996,2,-1.000000,6.000000,-4.000000,2.000000
39031,2026-07-29T20:09:39.665+08:00,71,0.142000,0,1001,6,996,2,1.000000,6.000000,-4.000000,2.000000
39032,2026-07-29T20:09:39.665+08:00,72,0.144000,0,1002,6,1000,2,2.000000,6.000000,0.000000,2.000000
39033,2026-07-29T20:09:39.665+08:00,73,0.146000,0,999,6,1001,2,-1.000000,6.000000,1.000000,2.000000
39034,2026-07-29T20:09:39.668+08:00,74,0.148000,0,996,4,999,2,-4.000000,4.000000,-1.000000,2.000000
39035,2026-07-29T20:09:39.685+08:00,75,0.150000,0,997,6,999,2,-3.000000,6.000000,-1.000000,2.000000
39036,2026-07-29T20:09:39.685+08:00,76,0.152000,0,1001,4,1001,2,1.000000,4.000000,1.000000,2.000000
39037,2026-07-29T20:09:39.685+08:00,77,0.154000,0,1003,4,1001,2,3.000000,4.000000,1.000000,2.000000
39038,2026-07-29T20:09:39.692+08:00,78,0.156000,0,1001,4,998,2,1.000000,4.000000,-2.000000,2.000000
39039,2026-07-29T20:09:39.692+08:00,79,0.158000,0,997,4,996,2,-3.000000,4.000000,-4.000000,2.000000
39040,2026-07-29T20:09:39.692+08:00,80,0.160000,0,997,4,999,2,-3.000000,4.000000,-1.000000,2.000000
39041,2026-07-29T20:09:39.692+08:00,81,0.162000,0,1001,4,1002,2,1.000000,4.000000,2.000000,2.000000
39042,2026-07-29T20:09:39.692+08:00,82,0.164000,0,1003,4,1002,2,3.000000,4.000000,2.000000,2.000000
39043,2026-07-29T20:09:39.698+08:00,83,0.166000,0,1000,4,999,2,0.000000,4.000000,-1.000000,2.000000
39044,2026-07-29T20:09:39.698+08:00,84,0.168000,0,996,4,997,2,-4.000000,4.000000,-3.000000,2.000000
39045,2026-07-29T20:09:39.698+08:00,85,0.170000,0,997,4,999,2,-3.000000,4.000000,-1.000000,2.000000
39046,2026-07-29T20:09:39.698+08:00,86,0.172000,0,1002,4,1001,2,2.000000,4.000000,1.000000,2.000000
39047,2026-07-29T20:09:39.698+08:00,87,0.174000,0,1003,4,1001,2,3.000000,4.000000,1.000000,2.000000
39048,2026-07-29T20:09:39.698+08:00,88,0.176000,0,998,4,999,2,-2.000000,4.000000,-1.000000,2.000000
39049,2026-07-29T20:09:39.698+08:00,89,0.178000,0,996,4,997,2,-4.000000,4.000000,-3.000000,2.000000
39050,2026-07-29T20:09:39.729+08:00,90,0.180000,0,999,4,999,2,-1.000000,4.000000,-1.000000,2.000000
39051,2026-07-29T20:09:39.729+08:00,91,0.182000,0,1004,4,1001,2,4.000000,4.000000,1.000000,2.000000
39052,2026-07-29T20:09:39.729+08:00,92,0.184000,0,1002,4,1001,2,2.000000,4.000000,1.000000,2.000000
39053,2026-07-29T20:09:39.729+08:00,93,0.186000,0,997,4,998,2,-3.000000,4.000000,-2.000000,2.000000
39054,2026-07-29T20:09:39.729+08:00,94,0.188000,0,995,4,998,2,-5.000000,4.000000,-2.000000,2.000000
39055,2026-07-29T20:09:39.729+08:00,95,0.190000,0,1000,4,1000,2,0.000000,4.000000,0.000000,2.000000
39056,2026-07-29T20:09:39.729+08:00,96,0.192000,0,1004,4,1001,2,4.000000,4.000000,1.000000,2.000000
39057,2026-07-29T20:09:39.729+08:00,97,0.194000,0,1001,4,1000,2,1.000000,4.000000,0.000000,2.000000
39058,2026-07-29T20:09:39.729+08:00,98,0.196000,0,995,4,998,2,-5.000000,4.000000,-2.000000,2.000000
39059,2026-07-29T20:09:39.729+08:00,99,0.198000,0,996,4,999,2,-4.000000,4.000000,-1.000000,2.000000
39060,2026-07-29T20:09:39.729+08:00,100,0.200000,0,1003,4,1000,2,3.000000,4.000000,0.000000,2.000000
39061,2026-07-29T20:09:39.729+08:00,101,0.202000,0,1006,4,1001,2,6.000000,4.000000,1.000000,2.000000
39062,2026-07-29T20:09:39.729+08:00,102,0.204000,0,1000,4,1000,2,0.000000,4.000000,0.000000,2.000000
39063,2026-07-29T20:09:39.729+08:00,103,0.206000,0,993,6,999,2,-7.000000,6.000000,-1.000000,2.000000
39064,2026-07-29T20:09:39.729+08:00,104,0.208000,0,994,6,998,2,-6.000000,6.000000,-2.000000,2.000000
39065,2026-07-29T20:09:39.739+08:00,105,0.210000,0,1002,6,997,2,2.000000,6.000000,-3.000000,2.000000
39066,2026-07-29T20:09:39.739+08:00,106,0.212000,0,1006,6,999,2,6.000000,6.000000,-1.000000,2.000000
39067,2026-07-29T20:09:39.739+08:00,107,0.214000,0,1002,6,1002,2,2.000000,6.000000,2.000000,2.000000
39068,2026-07-29T20:09:39.742+08:00,108,0.216000,0,997,4,1003,2,-3.000000,4.000000,3.000000,2.000000
39069,2026-07-29T20:09:39.742+08:00,109,0.218000,0,996,4,999,2,-4.000000,4.000000,-1.000000,2.000000
39070,2026-07-29T20:09:39.742+08:00,110,0.220000,0,998,4,996,2,-2.000000,4.000000,-4.000000,2.000000
39071,2026-07-29T20:09:39.744+08:00,111,0.222000,0,999,4,997,2,-1.000000,4.000000,-3.000000,2.000000
39072,2026-07-29T20:09:39.744+08:00,112,0.224000,0,1001,4,1001,2,1.000000,4.000000,1.000000,2.000000
39073,2026-07-29T20:09:39.759+08:00,113,0.226000,0,1002,4,1003,2,2.000000,4.000000,3.000000,2.000000
39074,2026-07-29T20:09:39.759+08:00,114,0.228000,0,1001,4,1001,2,1.000000,4.000000,1.000000,2.000000
39075,2026-07-29T20:09:39.759+08:00,115,0.230000,0,998,4,997,2,-2.000000,4.000000,-3.000000,2.000000
39076,2026-07-29T20:09:39.759+08:00,116,0.232000,0,997,4,996,2,-3.000000,4.000000,-4.000000,2.000000
39077,2026-07-29T20:09:39.766+08:00,117,0.234000,0,998,4,999,2,-2.000000,4.000000,-1.000000,2.000000
39078,2026-07-29T20:09:39.766+08:00,118,0.236000,0,1001,4,1002,2,1.000000,4.000000,2.000000,2.000000
39079,2026-07-29T20:09:39.766+08:00,119,0.238000,0,1001,4,1001,2,1.000000,4.000000,1.000000,2.000000
39080,2026-07-29T20:09:39.772+08:00,120,0.240000,0,1000,4,1000,2,0.000000,4.000000,0.000000,2.000000
39081,2026-07-29T20:09:39.772+08:00,121,0.242000,0,1000,4,999,2,0.000000,4.000000,-1.000000,2.000000
39082,2026-07-29T20:09:39.772+08:00,122,0.244000,0,1001,4,998,2,1.000000,4.000000,-2.000000,2.000000
39083,2026-07-29T20:09:39.772+08:00,123,0.246000,0,999,4,997,2,-1.000000,4.000000,-3.000000,2.000000
39084,2026-07-29T20:09:39.772+08:00,124,0.248000,0,996,4,998,2,-4.000000,4.000000,-2.000000,2.000000
39085,2026-07-29T20:09:39.772+08:00,125,0.250000,0,997,4,1002,2,-3.000000,4.000000,2.000000,2.000000
39086,2026-07-29T20:09:39.785+08:00,126,0.252000,0,1001,4,1003,2,1.000000,4.000000,3.000000,2.000000
39087,2026-07-29T20:09:39.785+08:00,127,0.254000,0,1004,4,1000,2,4.000000,4.000000,0.000000,2.000000
39088,2026-07-29T20:09:39.785+08:00,128,0.256000,0,1002,4,996,2,2.000000,4.000000,-4.000000,2.000000
39089,2026-07-29T20:09:39.785+08:00,129,0.258000,0,996,4,997,2,-4.000000,4.000000,-3.000000,2.000000
39090,2026-07-29T20:09:39.785+08:00,130,0.260000,0,994,4,1001,2,-6.000000,4.000000,1.000000,2.000000
39091,2026-07-29T20:09:39.802+08:00,131,0.262000,0,998,4,1002,2,-2.000000,4.000000,2.000000,2.000000
39092,2026-07-29T20:09:39.802+08:00,132,0.264000,0,1004,4,999,2,4.000000,4.000000,-1.000000,2.000000
39093,2026-07-29T20:09:39.802+08:00,133,0.266000,0,1005,4,998,2,5.000000,4.000000,-2.000000,2.000000
39094,2026-07-29T20:09:39.802+08:00,134,0.268000,0,1000,4,1000,2,0.000000,4.000000,0.000000,2.000000
39095,2026-07-29T20:09:39.802+08:00,135,0.270000,0,994,4,1003,2,-6.000000,4.000000,3.000000,2.000000
39096,2026-07-29T20:09:39.802+08:00,136,0.272000,0,995,4,1000,2,-5.000000,4.000000,0.000000,2.000000
39097,2026-07-29T20:09:39.802+08:00,137,0.274000,0,1001,4,996,2,1.000000,4.000000,-4.000000,2.000000
39098,2026-07-29T20:09:39.802+08:00,138,0.276000,0,1004,4,997,2,4.000000,4.000000,-3.000000,2.000000
39099,2026-07-29T20:09:39.802+08:00,139,0.278000,0,1002,4,1002,2,2.000000,4.000000,2.000000,2.000000
39100,2026-07-29T20:09:39.802+08:00,140,0.280000,0,997,4,1003,2,-3.000000,4.000000,3.000000,2.000000
39101,2026-07-29T20:09:39.804+08:00,141,0.282000,0,996,4,999,2,-4.000000,4.000000,-1.000000,2.000000
39102,2026-07-29T20:09:39.804+08:00,142,0.284000,0,999,4,995,2,-1.000000,4.000000,-5.000000,2.000000
39103,2026-07-29T20:09:39.811+08:00,143,0.286000,0,1002,4,999,2,2.000000,4.000000,-1.000000,2.000000
39104,2026-07-29T20:09:39.814+08:00,144,0.288000,0,1001,4,1004,2,1.000000,4.000000,4.000000,2.000000
39105,2026-07-29T20:09:39.814+08:00,145,0.290000,0,998,4,1003,2,-2.000000,4.000000,3.000000,2.000000
39106,2026-07-29T20:09:39.814+08:00,146,0.292000,0,997,4,997,2,-3.000000,4.000000,-3.000000,2.000000
39107,2026-07-29T20:09:39.818+08:00,147,0.294000,0,999,4,993,2,-1.000000,4.000000,-7.000000,2.000000
39108,2026-07-29T20:09:39.818+08:00,148,0.296000,0,1001,4,997,2,1.000000,4.000000,-3.000000,2.000000
39109,2026-07-29T20:09:39.818+08:00,149,0.298000,0,1002,4,1004,2,2.000000,4.000000,4.000000,2.000000
39110,2026-07-29T20:09:39.836+08:00,150,0.300000,0,1000,4,1005,2,0.000000,4.000000,5.000000,2.000000
39111,2026-07-29T20:09:39.836+08:00,151,0.302000,0,998,4,999,2,-2.000000,4.000000,-1.000000,2.000000
39112,2026-07-29T20:09:39.836+08:00,152,0.304000,0,997,4,996,2,-3.000000,4.000000,-4.000000,2.000000
39113,2026-07-29T20:09:39.836+08:00,153,0.306000,0,999,4,997,2,-1.000000,4.000000,-3.000000,2.000000
39114,2026-07-29T20:09:39.836+08:00,154,0.308000,0,1001,4,1001,2,1.000000,4.000000,1.000000,2.000000
39115,2026-07-29T20:09:39.836+08:00,155,0.310000,0,1002,4,1001,2,2.000000,4.000000,1.000000,2.000000
39116,2026-07-29T20:09:39.836+08:00,156,0.312000,0,1000,4,998,2,0.000000,4.000000,-2.000000,2.000000
39117,2026-07-29T20:09:39.836+08:00,157,0.314000,0,997,4,997,2,-3.000000,4.000000,-3.000000,2.000000
39118,2026-07-29T20:09:39.846+08:00,158,0.316000,0,997,4,1000,2,-3.000000,4.000000,0.000000,2.000000
39119,2026-07-29T20:09:39.846+08:00,159,0.318000,0,1000,4,1003,2,0.000000,4.000000,3.000000,2.000000
39120,2026-07-29T20:09:39.846+08:00,160,0.320000,0,1002,4,1003,2,2.000000,4.000000,3.000000,2.000000
39121,2026-07-29T20:09:39.846+08:00,161,0.322000,0,1002,4,998,2,2.000000,4.000000,-2.000000,2.000000
39122,2026-07-29T20:09:39.846+08:00,162,0.324000,0,999,4,994,2,-1.000000,4.000000,-6.000000,2.000000
39123,2026-07-29T20:09:39.846+08:00,163,0.326000,0,997,4,996,2,-3.000000,4.000000,-4.000000,2.000000
39124,2026-07-29T20:09:39.853+08:00,164,0.328000,0,998,4,1002,2,-2.000000,4.000000,2.000000,2.000000
39125,2026-07-29T20:09:39.881+08:00,165,0.330000,0,1000,2,1005,2,0.000000,2.000000,5.000000,2.000000
39126,2026-07-29T20:09:39.881+08:00,166,0.332000,0,1001,2,1002,2,1.000000,2.000000,2.000000,2.000000
39127,2026-07-29T20:09:39.881+08:00,167,0.334000,0,1000,2,997,2,0.000000,2.000000,-3.000000,2.000000
39128,2026-07-29T20:09:39.881+08:00,168,0.336000,0,999,2,995,2,-1.000000,2.000000,-5.000000,2.000000
39129,2026-07-29T20:09:39.881+08:00,169,0.338000,0,999,2,998,2,-1.000000,2.000000,-2.000000,2.000000
39130,2026-07-29T20:09:39.881+08:00,170,0.340000,0,1000,2,1002,2,0.000000,2.000000,2.000000,2.000000
39131,2026-07-29T20:09:39.881+08:00,171,0.342000,0,1000,2,1002,2,0.000000,2.000000,2.000000,2.000000
39132,2026-07-29T20:09:39.881+08:00,172,0.344000,0,999,2,999,2,-1.000000,2.000000,-1.000000,2.000000
39133,2026-07-29T20:09:39.881+08:00,173,0.346000,0,999,2,997,2,-1.000000,2.000000,-3.000000,2.000000
39134,2026-07-29T20:09:39.881+08:00,174,0.348000,0,999,2,999,2,-1.000000,2.000000,-1.000000,2.000000
39135,2026-07-29T20:09:39.881+08:00,175,0.350000,0,1000,2,1002,2,0.000000,2.000000,2.000000,2.000000
39136,2026-07-29T20:09:39.881+08:00,176,0.352000,0,1000,2,1001,2,0.000000,2.000000,1.000000,2.000000
39137,2026-07-29T20:09:39.881+08:00,177,0.354000,0,1000,2,998,2,0.000000,2.000000,-2.000000,2.000000
39138,2026-07-29T20:09:39.881+08:00,178,0.356000,0,999,2,997,2,-1.000000,2.000000,-3.000000,2.000000
39139,2026-07-29T20:09:39.881+08:00,179,0.358000,0,998,2,999,2,-2.000000,2.000000,-1.000000,2.000000
39140,2026-07-29T20:09:39.889+08:00,180,0.360000,0,998,2,1001,2,-2.000000,2.000000,1.000000,2.000000
39141,2026-07-29T20:09:39.889+08:00,181,0.362000,0,1001,2,1000,2,1.000000,2.000000,0.000000,2.000000
39142,2026-07-29T20:09:39.889+08:00,182,0.364000,0,1002,2,999,2,2.000000,2.000000,-1.000000,2.000000
39143,2026-07-29T20:09:39.891+08:00,183,0.366000,0,1000,2,999,2,0.000000,2.000000,-1.000000,2.000000
39144,2026-07-29T20:09:39.891+08:00,184,0.368000,0,996,2,1000,2,-4.000000,2.000000,0.000000,2.000000
39145,2026-07-29T20:09:39.891+08:00,185,0.370000,0,996,2,1000,2,-4.000000,2.000000,0.000000,2.000000
39146,2026-07-29T20:09:39.893+08:00,186,0.372000,0,1001,2,998,2,1.000000,2.000000,-2.000000,2.000000
39147,2026-07-29T20:09:39.893+08:00,187,0.374000,0,1004,2,998,2,4.000000,2.000000,-2.000000,2.000000
39148,2026-07-29T20:09:39.917+08:00,188,0.376000,0,1001,2,1000,2,1.000000,2.000000,0.000000,2.000000
39149,2026-07-29T20:09:39.917+08:00,189,0.378000,0,995,2,1001,2,-5.000000,2.000000,1.000000,2.000000
39150,2026-07-29T20:09:39.917+08:00,190,0.380000,0,996,2,1000,2,-4.000000,2.000000,0.000000,2.000000
39151,2026-07-29T20:09:39.917+08:00,191,0.382000,0,1001,2,999,2,1.000000,2.000000,-1.000000,2.000000
39152,2026-07-29T20:09:39.917+08:00,192,0.384000,0,1004,2,999,2,4.000000,2.000000,-1.000000,2.000000
39153,2026-07-29T20:09:39.917+08:00,193,0.386000,0,1002,2,1001,2,2.000000,2.000000,1.000000,2.000000
39154,2026-07-29T20:09:39.917+08:00,194,0.388000,0,997,2,1000,2,-3.000000,2.000000,0.000000,2.000000
39155,2026-07-29T20:09:39.923+08:00,195,0.390000,0,995,2,998,2,-5.000000,2.000000,-2.000000,2.000000
39156,2026-07-29T20:09:39.923+08:00,196,0.392000,0,998,2,997,2,-2.000000,2.000000,-3.000000,2.000000
39157,2026-07-29T20:09:39.923+08:00,197,0.394000,0,1002,2,999,2,2.000000,2.000000,-1.000000,2.000000
39158,2026-07-29T20:09:39.923+08:00,198,0.396000,0,1003,2,1002,2,3.000000,2.000000,2.000000,2.000000
39159,2026-07-29T20:09:39.923+08:00,199,0.398000,0,1001,2,1002,2,1.000000,2.000000,2.000000,2.000000
39160,2026-07-29T20:09:39.923+08:00,200,0.400000,0,997,2,999,2,-3.000000,2.000000,-1.000000,2.000000
39161,2026-07-29T20:09:39.924+08:00,201,0.402000,0,997,2,997,2,-3.000000,2.000000,-3.000000,2.000000
39162,2026-07-29T20:09:39.924+08:00,202,0.404000,0,999,2,997,2,-1.000000,2.000000,-3.000000,2.000000
39163,2026-07-29T20:09:39.958+08:00,203,0.406000,0,1001,2,999,2,1.000000,2.000000,-1.000000,2.000000
39164,2026-07-29T20:09:39.958+08:00,204,0.408000,0,1000,2,1002,2,0.000000,2.000000,2.000000,2.000000
39165,2026-07-29T20:09:39.958+08:00,205,0.410000,0,1000,2,1003,2,0.000000,2.000000,3.000000,2.000000
39166,2026-07-29T20:09:39.958+08:00,206,0.412000,0,1000,2,999,2,0.000000,2.000000,-1.000000,2.000000
39167,2026-07-29T20:09:39.958+08:00,207,0.414000,0,1000,2,995,2,0.000000,2.000000,-5.000000,2.000000
39168,2026-07-29T20:09:39.958+08:00,208,0.416000,0,998,2,996,2,-2.000000,2.000000,-4.000000,2.000000
39169,2026-07-29T20:09:39.958+08:00,209,0.418000,0,997,2,1000,2,-3.000000,2.000000,0.000000,2.000000
39170,2026-07-29T20:09:39.958+08:00,210,0.420000,0,999,2,1004,2,-1.000000,2.000000,4.000000,2.000000
39171,2026-07-29T20:09:39.958+08:00,211,0.422000,0,1002,2,1003,2,2.000000,2.000000,3.000000,2.000000
39172,2026-07-29T20:09:39.958+08:00,212,0.424000,0,1001,2,999,2,1.000000,2.000000,-1.000000,2.000000
39173,2026-07-29T20:09:39.958+08:00,213,0.426000,0,998,2,996,2,-2.000000,2.000000,-4.000000,2.000000
39174,2026-07-29T20:09:39.958+08:00,214,0.428000,0,998,2,996,2,-2.000000,2.000000,-4.000000,2.000000
39175,2026-07-29T20:09:39.958+08:00,215,0.430000,0,1001,2,999,2,1.000000,2.000000,-1.000000,2.000000
39176,2026-07-29T20:09:39.958+08:00,216,0.432000,0,1002,2,1003,2,2.000000,2.000000,3.000000,2.000000
39177,2026-07-29T20:09:39.958+08:00,217,0.434000,0,998,2,1004,2,-2.000000,2.000000,4.000000,2.000000
39178,2026-07-29T20:09:39.964+08:00,218,0.436000,0,996,2,1001,2,-4.000000,2.000000,1.000000,2.000000
39179,2026-07-29T20:09:39.964+08:00,219,0.438000,0,998,2,996,2,-2.000000,2.000000,-4.000000,2.000000
39180,2026-07-29T20:09:39.964+08:00,220,0.440000,0,1002,2,995,2,2.000000,2.000000,-5.000000,2.000000
39181,2026-07-29T20:09:39.965+08:00,221,0.442000,0,1003,2,1000,2,3.000000,2.000000,0.000000,2.000000
39182,2026-07-29T20:09:39.965+08:00,222,0.444000,0,999,2,1004,2,-1.000000,2.000000,4.000000,2.000000
39183,2026-07-29T20:09:39.965+08:00,223,0.446000,0,996,2,1002,2,-4.000000,2.000000,2.000000,2.000000
39184,2026-07-29T20:09:39.968+08:00,224,0.448000,0,997,2,997,2,-3.000000,2.000000,-3.000000,2.000000
39185,2026-07-29T20:09:39.983+08:00,225,0.450000,0,1000,2,996,2,0.000000,2.000000,-4.000000,2.000000
39186,2026-07-29T20:09:39.983+08:00,226,0.452000,0,1002,2,1001,2,2.000000,2.000000,1.000000,2.000000
39187,2026-07-29T20:09:39.983+08:00,227,0.454000,0,1001,2,1005,2,1.000000,2.000000,5.000000,2.000000
39188,2026-07-29T20:09:39.983+08:00,228,0.456000,0,1000,2,1002,2,0.000000,2.000000,2.000000,2.000000
39189,2026-07-29T20:09:39.983+08:00,229,0.458000,0,997,2,995,2,-3.000000,2.000000,-5.000000,2.000000
39190,2026-07-29T20:09:39.983+08:00,230,0.460000,0,996,2,994,2,-4.000000,2.000000,-6.000000,2.000000
39191,2026-07-29T20:09:39.987+08:00,231,0.462000,0,999,2,1000,2,-1.000000,2.000000,0.000000,2.000000
39192,2026-07-29T20:09:39.987+08:00,232,0.464000,0,1003,2,1005,2,3.000000,2.000000,5.000000,2.000000
39193,2026-07-29T20:09:39.994+08:00,233,0.466000,0,1004,2,1002,2,4.000000,2.000000,2.000000,2.000000
39194,2026-07-29T20:09:39.994+08:00,234,0.468000,0,1000,2,997,2,0.000000,2.000000,-3.000000,2.000000
39195,2026-07-29T20:09:39.994+08:00,235,0.470000,0,994,2,996,2,-6.000000,2.000000,-4.000000,2.000000
39196,2026-07-29T20:09:39.999+08:00,236,0.472000,0,993,2,999,2,-7.000000,2.000000,-1.000000,2.000000
39197,2026-07-29T20:09:39.999+08:00,237,0.474000,0,999,2,1001,2,-1.000000,2.000000,1.000000,2.000000
39198,2026-07-29T20:09:39.999+08:00,238,0.476000,0,1007,2,1000,2,7.000000,2.000000,0.000000,2.000000
39199,2026-07-29T20:09:39.999+08:00,239,0.478000,0,1007,2,999,2,7.000000,2.000000,-1.000000,2.000000
39200,2026-07-29T20:09:40.034+08:00,240,0.480000,0,998,2,998,2,-2.000000,2.000000,-2.000000,2.000000
39201,2026-07-29T20:09:40.034+08:00,241,0.482000,0,991,2,999,2,-9.000000,2.000000,-1.000000,2.000000
39202,2026-07-29T20:09:40.034+08:00,242,0.484000,0,993,2,1001,2,-7.000000,2.000000,1.000000,2.000000
39203,2026-07-29T20:09:40.034+08:00,243,0.486000,0,1002,2,1001,2,2.000000,2.000000,1.000000,2.000000
39204,2026-07-29T20:09:40.034+08:00,244,0.488000,0,1008,2,1000,2,8.000000,2.000000,0.000000,2.000000
39205,2026-07-29T20:09:40.034+08:00,245,0.490000,0,1003,2,998,2,3.000000,2.000000,-2.000000,2.000000
39206,2026-07-29T20:09:40.034+08:00,246,0.492000,0,995,2,997,2,-5.000000,2.000000,-3.000000,2.000000
39207,2026-07-29T20:09:40.034+08:00,247,0.494000,0,994,2,999,2,-6.000000,2.000000,-1.000000,2.000000
39208,2026-07-29T20:09:40.034+08:00,248,0.496000,0,999,2,1002,2,-1.000000,2.000000,2.000000,2.000000
39209,2026-07-29T20:09:40.034+08:00,249,0.498000,0,1004,2,1002,2,4.000000,2.000000,2.000000,2.000000
39210,2026-07-29T20:09:40.034+08:00,250,0.500000,0,1003,2,999,2,3.000000,2.000000,-1.000000,2.000000
39211,2026-07-29T20:09:40.034+08:00,251,0.502000,0,999,2,998,2,-1.000000,2.000000,-2.000000,2.000000
39212,2026-07-29T20:09:40.034+08:00,252,0.504000,0,997,2,998,2,-3.000000,2.000000,-2.000000,2.000000
39213,2026-07-29T20:09:40.034+08:00,253,0.506000,0,998,2,999,2,-2.000000,2.000000,-1.000000,2.000000
39214,2026-07-29T20:09:40.034+08:00,254,0.508000,0,1000,2,999,2,0.000000,2.000000,-1.000000,2.000000
39215,2026-07-29T20:09:40.038+08:00,255,0.510000,0,1000,2,1001,2,0.000000,2.000000,1.000000,2.000000
39216,2026-07-29T20:09:40.038+08:00,256,0.512000,0,1000,2,1002,2,0.000000,2.000000,2.000000,2.000000
39217,2026-07-29T20:09:40.038+08:00,257,0.514000,0,1001,2,1000,2,1.000000,2.000000,0.000000,2.000000
39218,2026-07-29T20:09:40.040+08:00,258,0.516000,0,1001,2,996,2,1.000000,2.000000,-4.000000,2.000000
39219,2026-07-29T20:09:40.040+08:00,259,0.518000,0,998,2,995,2,-2.000000,2.000000,-5.000000,2.000000
39220,2026-07-29T20:09:40.040+08:00,260,0.520000,0,996,2,1000,2,-4.000000,2.000000,0.000000,2.000000
39221,2026-07-29T20:09:40.043+08:00,261,0.522000,0,998,2,1006,2,-2.000000,2.000000,6.000000,2.000000
39222,2026-07-29T20:09:40.043+08:00,262,0.524000,0,1003,2,1004,2,3.000000,2.000000,4.000000,2.000000
39223,2026-07-29T20:09:40.064+08:00,263,0.526000,0,1003,2,997,2,3.000000,2.000000,-3.000000,2.000000
39224,2026-07-29T20:09:40.064+08:00,264,0.528000,0,999,2,993,2,-1.000000,2.000000,-7.000000,2.000000
39225,2026-07-29T20:09:40.064+08:00,265,0.530000,0,996,2,997,2,-4.000000,2.000000,-3.000000,2.000000
39226,2026-07-29T20:09:40.064+08:00,266,0.532000,0,998,2,1003,2,-2.000000,2.000000,3.000000,2.000000
39227,2026-07-29T20:09:40.064+08:00,267,0.534000,0,1001,2,1004,2,1.000000,2.000000,4.000000,2.000000
39228,2026-07-29T20:09:40.064+08:00,268,0.536000,0,1001,2,1001,2,1.000000,2.000000,1.000000,2.000000
39229,2026-07-29T20:09:40.064+08:00,269,0.538000,0,999,2,997,2,-1.000000,2.000000,-3.000000,2.000000
39230,2026-07-29T20:09:40.078+08:00,270,0.540000,0,999,2,998,2,-1.000000,2.000000,-2.000000,2.000000
39231,2026-07-29T20:09:40.078+08:00,271,0.542000,0,1000,2,999,2,0.000000,2.000000,-1.000000,2.000000
39232,2026-07-29T20:09:40.078+08:00,272,0.544000,0,1001,2,999,2,1.000000,2.000000,-1.000000,2.000000
39233,2026-07-29T20:09:40.078+08:00,273,0.546000,0,1000,2,1000,2,0.000000,2.000000,0.000000,2.000000
39234,2026-07-29T20:09:40.078+08:00,274,0.548000,0,999,2,1000,2,-1.000000,2.000000,0.000000,2.000000
39235,2026-07-29T20:09:40.078+08:00,275,0.550000,0,999,2,1001,2,-1.000000,2.000000,1.000000,2.000000
39236,2026-07-29T20:09:40.078+08:00,276,0.552000,0,1000,2,1000,2,0.000000,2.000000,0.000000,2.000000
39237,2026-07-29T20:09:40.078+08:00,277,0.554000,0,1000,2,999,2,0.000000,2.000000,-1.000000,2.000000
39238,2026-07-29T20:09:40.095+08:00,278,0.556000,0,998,2,999,2,-2.000000,2.000000,-1.000000,2.000000
39239,2026-07-29T20:09:40.095+08:00,279,0.558000,0,999,2,999,2,-1.000000,2.000000,-1.000000,2.000000
39240,2026-07-29T20:09:40.095+08:00,280,0.560000,0,1002,2,999,2,2.000000,2.000000,-1.000000,2.000000
39241,2026-07-29T20:09:40.095+08:00,281,0.562000,0,1001,2,999,2,1.000000,2.000000,-1.000000,2.000000
39242,2026-07-29T20:09:40.095+08:00,282,0.564000,0,998,2,1000,2,-2.000000,2.000000,0.000000,2.000000
39243,2026-07-29T20:09:40.095+08:00,283,0.566000,0,996,2,1001,2,-4.000000,2.000000,1.000000,2.000000
39244,2026-07-29T20:09:40.095+08:00,284,0.568000,0,998,2,1001,2,-2.000000,2.000000,1.000000,2.000000
39245,2026-07-29T20:09:40.120+08:00,285,0.570000,0,1002,2,999,2,2.000000,2.000000,-1.000000,2.000000
39246,2026-07-29T20:09:40.120+08:00,286,0.572000,0,1003,2,998,2,3.000000,2.000000,-2.000000,2.000000
39247,2026-07-29T20:09:40.120+08:00,287,0.574000,0,1000,2,999,2,0.000000,2.000000,-1.000000,2.000000
39248,2026-07-29T20:09:40.120+08:00,288,0.576000,0,998,2,1001,2,-2.000000,2.000000,1.000000,2.000000
39249,2026-07-29T20:09:40.120+08:00,289,0.578000,0,998,2,999,2,-2.000000,2.000000,-1.000000,2.000000
39250,2026-07-29T20:09:40.120+08:00,290,0.580000,0,999,2,997,2,-1.000000,2.000000,-3.000000,2.000000
39251,2026-07-29T20:09:40.120+08:00,291,0.582000,0,999,2,1000,2,-1.000000,2.000000,0.000000,2.000000
39252,2026-07-29T20:09:40.120+08:00,292,0.584000,0,1000,2,1004,2,0.000000,2.000000,4.000000,2.000000
39253,2026-07-29T20:09:40.120+08:00,293,0.586000,0,1002,2,1002,2,2.000000,2.000000,2.000000,2.000000
39254,2026-07-29T20:09:40.120+08:00,294,0.588000,0,1002,2,997,2,2.000000,2.000000,-3.000000,2.000000
39255,2026-07-29T20:09:40.120+08:00,295,0.590000,0,999,2,994,2,-1.000000,2.000000,-6.000000,2.000000
39256,2026-07-29T20:09:40.120+08:00,296,0.592000,0,994,2,998,2,-6.000000,2.000000,-2.000000,2.000000
39257,2026-07-29T20:09:40.120+08:00,297,0.594000,0,996,2,1003,2,-4.000000,2.000000,3.000000,2.000000
39258,2026-07-29T20:09:40.120+08:00,298,0.596000,0,1002,2,1004,2,2.000000,2.000000,4.000000,2.000000
39259,2026-07-29T20:09:40.120+08:00,299,0.598000,0,1007,2,1000,2,7.000000,2.000000,0.000000,2.000000
39260,2026-07-29T20:09:40.128+08:00,300,0.600000,0,1003,2,997,2,3.000000,2.000000,-3.000000,2.000000
39261,2026-07-29T20:09:40.128+08:00,301,0.602000,0,995,2,998,2,-5.000000,2.000000,-2.000000,2.000000
39262,2026-07-29T20:09:40.128+08:00,302,0.604000,0,993,2,1000,2,-7.000000,2.000000,0.000000,2.000000
39263,2026-07-29T20:09:40.132+08:00,303,0.606000,0,999,2,1000,2,-1.000000,2.000000,0.000000,2.000000
39264,2026-07-29T20:09:40.132+08:00,304,0.608000,0,1004,2,999,2,4.000000,2.000000,-1.000000,2.000000
39265,2026-07-29T20:09:40.132+08:00,305,0.610000,0,1003,2,999,2,3.000000,2.000000,-1.000000,2.000000
39266,2026-07-29T20:09:40.134+08:00,306,0.612000,0,998,2,1000,2,-2.000000,2.000000,0.000000,2.000000
39267,2026-07-29T20:09:40.134+08:00,307,0.614000,0,997,2,1000,2,-3.000000,2.000000,0.000000,2.000000
39268,2026-07-29T20:09:40.159+08:00,308,0.616000,0,1000,2,999,2,0.000000,2.000000,-1.000000,2.000000
39269,2026-07-29T20:09:40.159+08:00,309,0.618000,0,1002,2,999,2,2.000000,2.000000,-1.000000,2.000000
39270,2026-07-29T20:09:40.159+08:00,310,0.620000,0,999,2,1000,2,-1.000000,2.000000,0.000000,2.000000
39271,2026-07-29T20:09:40.159+08:00,311,0.622000,0,996,2,1000,2,-4.000000,2.000000,0.000000,2.000000
39272,2026-07-29T20:09:40.159+08:00,312,0.624000,0,997,2,998,2,-3.000000,2.000000,-2.000000,2.000000
39273,2026-07-29T20:09:40.159+08:00,313,0.626000,0,1001,2,998,2,1.000000,2.000000,-2.000000,2.000000
39274,2026-07-29T20:09:40.159+08:00,314,0.628000,0,1003,2,1000,2,3.000000,2.000000,0.000000,2.000000
39275,2026-07-29T20:09:40.159+08:00,315,0.630000,0,1001,2,1002,2,1.000000,2.000000,2.000000,2.000000
39276,2026-07-29T20:09:40.159+08:00,316,0.632000,0,998,2,1000,2,-2.000000,2.000000,0.000000,2.000000
39277,2026-07-29T20:09:40.159+08:00,317,0.634000,0,996,2,998,2,-4.000000,2.000000,-2.000000,2.000000
39278,2026-07-29T20:09:40.166+08:00,318,0.636000,0,997,2,998,2,-3.000000,2.000000,-2.000000,2.000000
39279,2026-07-29T20:09:40.166+08:00,319,0.638000,0,1000,2,1001,2,0.000000,2.000000,1.000000,2.000000
39280,2026-07-29T20:09:40.166+08:00,320,0.640000,0,1002,2,1001,2,2.000000,2.000000,1.000000,2.000000
39281,2026-07-29T20:09:40.166+08:00,321,0.642000,0,1003,2,998,2,3.000000,2.000000,-2.000000,2.000000
39282,2026-07-29T20:09:40.166+08:00,322,0.644000,0,1001,2,997,2,1.000000,2.000000,-3.000000,2.000000
39283,2026-07-29T20:09:40.196+08:00,323,0.646000,0,997,2,999,2,-3.000000,2.000000,-1.000000,2.000000
39284,2026-07-29T20:09:40.196+08:00,324,0.648000,0,996,2,1002,2,-4.000000,2.000000,2.000000,2.000000
39285,2026-07-29T20:09:40.196+08:00,325,0.650000,0,998,2,1002,2,-2.000000,2.000000,2.000000,2.000000
39286,2026-07-29T20:09:40.196+08:00,326,0.652000,0,1002,2,999,2,2.000000,2.000000,-1.000000,2.000000
39287,2026-07-29T20:09:40.196+08:00,327,0.654000,0,1002,2,998,2,2.000000,2.000000,-2.000000,2.000000
39288,2026-07-29T20:09:40.196+08:00,328,0.656000,0,1000,2,998,2,0.000000,2.000000,-2.000000,2.000000
39289,2026-07-29T20:09:40.196+08:00,329,0.658000,0,998,2,999,2,-2.000000,2.000000,-1.000000,2.000000
39290,2026-07-29T20:09:40.196+08:00,330,0.660000,0,999,2,1000,2,-1.000000,2.000000,0.000000,2.000000
39291,2026-07-29T20:09:40.196+08:00,331,0.662000,0,1000,2,1000,2,0.000000,2.000000,0.000000,2.000000
39292,2026-07-29T20:09:40.196+08:00,332,0.664000,0,999,2,1001,2,-1.000000,2.000000,1.000000,2.000000
39293,2026-07-29T20:09:40.196+08:00,333,0.666000,0,998,2,999,2,-2.000000,2.000000,-1.000000,2.000000
39294,2026-07-29T20:09:40.196+08:00,334,0.668000,0,1000,2,998,2,0.000000,2.000000,-2.000000,2.000000
39295,2026-07-29T20:09:40.196+08:00,335,0.670000,0,1003,2,999,2,3.000000,2.000000,-1.000000,2.000000
39296,2026-07-29T20:09:40.196+08:00,336,0.672000,0,1001,2,1000,2,1.000000,2.000000,0.000000,2.000000
39297,2026-07-29T20:09:40.196+08:00,337,0.674000,0,997,2,1000,2,-3.000000,2.000000,0.000000,2.000000
39298,2026-07-29T20:09:40.201+08:00,338,0.676000,0,996,2,998,2,-4.000000,2.000000,-2.000000,2.000000
39299,2026-07-29T20:09:40.203+08:00,339,0.678000,0,1000,2,998,2,0.000000,2.000000,-2.000000,2.000000
39300,2026-07-29T20:09:40.203+08:00,340,0.680000,0,1003,2,1000,2,3.000000,2.000000,0.000000,2.000000
39301,2026-07-29T20:09:40.203+08:00,341,0.682000,0,1002,2,1002,2,2.000000,2.000000,2.000000,2.000000
39302,2026-07-29T20:09:40.207+08:00,342,0.684000,0,998,2,1001,2,-2.000000,2.000000,1.000000,2.000000
39303,2026-07-29T20:09:40.207+08:00,343,0.686000,0,996,2,999,2,-4.000000,2.000000,-1.000000,2.000000
39304,2026-07-29T20:09:40.207+08:00,344,0.688000,0,998,2,998,2,-2.000000,2.000000,-2.000000,2.000000
39305,2026-07-29T20:09:40.223+08:00,345,0.690000,0,1002,2,998,2,2.000000,2.000000,-2.000000,2.000000
39306,2026-07-29T20:09:40.223+08:00,346,0.692000,0,1003,2,998,2,3.000000,2.000000,-2.000000,2.000000
39307,2026-07-29T20:09:40.223+08:00,347,0.694000,0,1000,2,999,2,0.000000,2.000000,-1.000000,2.000000
39308,2026-07-29T20:09:40.223+08:00,348,0.696000,0,997,2,1001,2,-3.000000,2.000000,1.000000,2.000000
39309,2026-07-29T20:09:40.223+08:00,349,0.698000,0,997,2,1003,2,-3.000000,2.000000,3.000000,2.000000
39310,2026-07-29T20:09:40.223+08:00,350,0.700000,0,999,2,1001,2,-1.000000,2.000000,1.000000,2.000000
39311,2026-07-29T20:09:40.223+08:00,351,0.702000,0,1000,2,997,2,0.000000,2.000000,-3.000000,2.000000
39312,2026-07-29T20:09:40.223+08:00,352,0.704000,0,1002,2,996,2,2.000000,2.000000,-4.000000,2.000000
39313,2026-07-29T20:09:40.237+08:00,353,0.706000,0,1002,2,998,2,2.000000,2.000000,-2.000000,2.000000
39314,2026-07-29T20:09:40.237+08:00,354,0.708000,0,1000,2,1002,2,0.000000,2.000000,2.000000,2.000000
39315,2026-07-29T20:09:40.237+08:00,355,0.710000,0,996,2,1003,2,-4.000000,2.000000,3.000000,2.000000
39316,2026-07-29T20:09:40.237+08:00,356,0.712000,0,995,2,1000,2,-5.000000,2.000000,0.000000,2.000000
39317,2026-07-29T20:09:40.237+08:00,357,0.714000,0,999,2,998,2,-1.000000,2.000000,-2.000000,2.000000
39318,2026-07-29T20:09:40.237+08:00,358,0.716000,0,1003,2,998,2,3.000000,2.000000,-2.000000,2.000000
39319,2026-07-29T20:09:40.237+08:00,359,0.718000,0,1002,2,999,2,2.000000,2.000000,-1.000000,2.000000
39320,2026-07-29T20:09:40.254+08:00,360,0.720000,0,999,2,1000,2,-1.000000,2.000000,0.000000,2.000000
39321,2026-07-29T20:09:40.254+08:00,361,0.722000,0,998,2,1001,2,-2.000000,2.000000,1.000000,2.000000
39322,2026-07-29T20:09:40.254+08:00,362,0.724000,0,998,2,1001,2,-2.000000,2.000000,1.000000,2.000000
39323,2026-07-29T20:09:40.254+08:00,363,0.726000,0,998,2,1000,2,-2.000000,2.000000,0.000000,2.000000
39324,2026-07-29T20:09:40.254+08:00,364,0.728000,0,998,2,999,2,-2.000000,2.000000,-1.000000,2.000000
39325,2026-07-29T20:09:40.254+08:00,365,0.730000,0,1002,2,997,2,2.000000,2.000000,-3.000000,2.000000
39326,2026-07-29T20:09:40.254+08:00,366,0.732000,0,1004,2,998,2,4.000000,2.000000,-2.000000,2.000000
39327,2026-07-29T20:09:40.254+08:00,367,0.734000,0,1002,2,1001,2,2.000000,2.000000,1.000000,2.000000
39328,2026-07-29T20:09:40.278+08:00,368,0.736000,0,996,2,1003,2,-4.000000,2.000000,3.000000,2.000000
39329,2026-07-29T20:09:40.278+08:00,369,0.738000,0,993,2,1001,2,-7.000000,2.000000,1.000000,2.000000
39330,2026-07-29T20:09:40.278+08:00,370,0.740000,0,998,2,995,2,-2.000000,2.000000,-5.000000,2.000000
39331,2026-07-29T20:09:40.278+08:00,371,0.742000,0,1005,2,994,2,5.000000,2.000000,-6.000000,2.000000
39332,2026-07-29T20:09:40.278+08:00,372,0.744000,0,1005,2,1000,2,5.000000,2.000000,0.000000,2.000000
39333,2026-07-29T20:09:40.278+08:00,373,0.746000,0,1000,2,1007,2,0.000000,2.000000,7.000000,2.000000
39334,2026-07-29T20:09:40.278+08:00,374,0.748000,0,996,2,1005,2,-4.000000,2.000000,5.000000,2.000000
39335,2026-07-29T20:09:40.278+08:00,375,0.750000,0,997,2,996,2,-3.000000,2.000000,-4.000000,2.000000
39336,2026-07-29T20:09:40.278+08:00,376,0.752000,0,998,2,991,2,-2.000000,2.000000,-9.000000,2.000000
39337,2026-07-29T20:09:40.278+08:00,377,0.754000,0,999,2,997,2,-1.000000,2.000000,-3.000000,2.000000
39338,2026-07-29T20:09:40.281+08:00,378,0.756000,0,1002,2,1005,2,2.000000,2.000000,5.000000,2.000000
39339,2026-07-29T20:09:40.281+08:00,379,0.758000,0,1004,2,1005,2,4.000000,2.000000,5.000000,2.000000
39340,2026-07-29T20:09:40.281+08:00,380,0.760000,0,1002,2,999,2,2.000000,2.000000,-1.000000,2.000000
39341,2026-07-29T20:09:40.284+08:00,381,0.762000,0,996,2,995,2,-4.000000,2.000000,-5.000000,2.000000
39342,2026-07-29T20:09:40.284+08:00,382,0.764000,0,993,2,998,2,-7.000000,2.000000,-2.000000,2.000000
39343,2026-07-29T20:09:40.310+08:00,383,0.766000,0,998,2,1002,2,-2.000000,2.000000,2.000000,2.000000
39344,2026-07-29T20:09:40.310+08:00,384,0.768000,0,1005,2,1001,2,5.000000,2.000000,1.000000,2.000000
39345,2026-07-29T20:09:40.310+08:00,385,0.770000,0,1006,2,998,2,6.000000,2.000000,-2.000000,2.000000
39346,2026-07-29T20:09:40.310+08:00,386,0.772000,0,999,2,997,2,-1.000000,2.000000,-3.000000,2.000000
39347,2026-07-29T20:09:40.310+08:00,387,0.774000,0,994,2,1000,2,-6.000000,2.000000,0.000000,2.000000
39348,2026-07-29T20:09:40.310+08:00,388,0.776000,0,996,2,1002,2,-4.000000,2.000000,2.000000,2.000000
39349,2026-07-29T20:09:40.310+08:00,389,0.778000,0,1001,2,1001,2,1.000000,2.000000,1.000000,2.000000
39350,2026-07-29T20:09:40.310+08:00,390,0.780000,0,1004,2,999,2,4.000000,2.000000,-1.000000,2.000000
39351,2026-07-29T20:09:40.310+08:00,391,0.782000,0,1001,2,998,2,1.000000,2.000000,-2.000000,2.000000
39352,2026-07-29T20:09:40.310+08:00,392,0.784000,0,997,2,998,2,-3.000000,2.000000,-2.000000,2.000000
39353,2026-07-29T20:09:40.315+08:00,393,0.786000,0,998,2,999,2,-2.000000,2.000000,-1.000000,2.000000
39354,2026-07-29T20:09:40.315+08:00,394,0.788000,0,1001,2,1000,2,1.000000,2.000000,0.000000,2.000000
39355,2026-07-29T20:09:40.315+08:00,395,0.790000,0,1001,2,1002,2,1.000000,2.000000,2.000000,2.000000
39356,2026-07-29T20:09:40.315+08:00,396,0.792000,0,999,2,1001,2,-1.000000,2.000000,1.000000,2.000000
39357,2026-07-29T20:09:40.315+08:00,397,0.794000,0,998,2,998,2,-2.000000,2.000000,-2.000000,2.000000
39358,2026-07-29T20:09:40.329+08:00,398,0.796000,0,1000,2,997,2,0.000000,2.000000,-3.000000,2.000000
39359,2026-07-29T20:09:40.329+08:00,399,0.798000,0,1001,2,999,2,1.000000,2.000000,-1.000000,2.000000
39360,2026-07-29T20:09:40.329+08:00,400,0.800000,0,998,2,1002,2,-2.000000,2.000000,2.000000,2.000000
39361,2026-07-29T20:09:40.329+08:00,401,0.802000,0,997,2,1002,2,-3.000000,2.000000,2.000000,2.000000
39362,2026-07-29T20:09:40.329+08:00,402,0.804000,0,999,2,999,2,-1.000000,2.000000,-1.000000,2.000000
39363,2026-07-29T20:09:40.329+08:00,403,0.806000,0,1003,2,997,2,3.000000,2.000000,-3.000000,2.000000
39364,2026-07-29T20:09:40.329+08:00,404,0.808000,0,1002,2,999,2,2.000000,2.000000,-1.000000,2.000000
39365,2026-07-29T20:09:40.344+08:00,405,0.810000,0,998,2,1002,2,-2.000000,2.000000,2.000000,2.000000
39366,2026-07-29T20:09:40.344+08:00,406,0.812000,0,996,2,1001,2,-4.000000,2.000000,1.000000,2.000000
39367,2026-07-29T20:09:40.344+08:00,407,0.814000,0,999,2,999,2,-1.000000,2.000000,-1.000000,2.000000
39368,2026-07-29T20:09:40.344+08:00,408,0.816000,0,1001,2,998,2,1.000000,2.000000,-2.000000,2.000000
39369,2026-07-29T20:09:40.344+08:00,409,0.818000,0,1001,2,999,2,1.000000,2.000000,-1.000000,2.000000
39370,2026-07-29T20:09:40.344+08:00,410,0.820000,0,1000,2,1000,2,0.000000,2.000000,0.000000,2.000000
39371,2026-07-29T20:09:40.344+08:00,411,0.822000,0,1000,2,1000,2,0.000000,2.000000,0.000000,2.000000
39372,2026-07-29T20:09:40.344+08:00,412,0.824000,0,999,2,999,2,-1.000000,2.000000,-1.000000,2.000000
39373,2026-07-29T20:09:40.353+08:00,413,0.826000,0,998,2,1000,2,-2.000000,2.000000,0.000000,2.000000
39374,2026-07-29T20:09:40.353+08:00,414,0.828000,0,998,2,1001,2,-2.000000,2.000000,1.000000,2.000000
39375,2026-07-29T20:09:40.353+08:00,415,0.830000,0,1001,2,1000,2,1.000000,2.000000,0.000000,2.000000
39376,2026-07-29T20:09:40.357+08:00,416,0.832000,0,1003,2,997,2,3.000000,2.000000,-3.000000,2.000000
39377,2026-07-29T20:09:40.357+08:00,417,0.834000,0,999,2,997,2,-1.000000,2.000000,-3.000000,2.000000
39378,2026-07-29T20:09:40.357+08:00,418,0.836000,0,995,2,1000,2,-5.000000,2.000000,0.000000,2.000000
39379,2026-07-29T20:09:40.364+08:00,419,0.838000,0,996,2,1002,2,-4.000000,2.000000,2.000000,2.000000
39380,2026-07-29T20:09:40.376+08:00,420,0.840000,0,1003,2,1001,2,3.000000,2.000000,1.000000,2.000000
39381,2026-07-29T20:09:40.376+08:00,421,0.842000,0,1007,2,998,2,7.000000,2.000000,-2.000000,2.000000
39382,2026-07-29T20:09:40.376+08:00,422,0.844000,0,1001,2,997,2,1.000000,2.000000,-3.000000,2.000000
39383,2026-07-29T20:09:40.376+08:00,423,0.846000,0,993,2,999,2,-7.000000,2.000000,-1.000000,2.000000
39384,2026-07-29T20:09:40.376+08:00,424,0.848000,0,993,2,1001,2,-7.000000,2.000000,1.000000,2.000000
39385,2026-07-29T20:09:40.376+08:00,425,0.850000,0,1001,2,1002,2,1.000000,2.000000,2.000000,2.000000
39386,2026-07-29T20:09:40.376+08:00,426,0.852000,0,1007,4,999,2,7.000000,4.000000,-1.000000,2.000000
39387,2026-07-29T20:09:40.376+08:00,427,0.854000,0,1003,2,997,2,3.000000,2.000000,-3.000000,2.000000
39388,2026-07-29T20:09:40.414+08:00,428,0.856000,0,996,2,998,2,-4.000000,2.000000,-2.000000,2.000000
39389,2026-07-29T20:09:40.414+08:00,429,0.858000,0,994,2,1001,2,-6.000000,2.000000,1.000000,2.000000
39390,2026-07-29T20:09:40.414+08:00,430,0.860000,0,999,2,1002,2,-1.000000,2.000000,2.000000,2.000000
39391,2026-07-29T20:09:40.414+08:00,431,0.862000,0,1004,2,1000,2,4.000000,2.000000,0.000000,2.000000
39392,2026-07-29T20:09:40.414+08:00,432,0.864000,0,1003,2,997,2,3.000000,2.000000,-3.000000,2.000000
39393,2026-07-29T20:09:40.414+08:00,433,0.866000,0,998,2,998,2,-2.000000,2.000000,-2.000000,2.000000
39394,2026-07-29T20:09:40.414+08:00,434,0.868000,0,995,2,1001,2,-5.000000,2.000000,1.000000,2.000000
39395,2026-07-29T20:09:40.414+08:00,435,0.870000,0,998,2,1002,2,-2.000000,2.000000,2.000000,2.000000
39396,2026-07-29T20:09:40.414+08:00,436,0.872000,0,1003,2,999,2,3.000000,2.000000,-1.000000,2.000000
39397,2026-07-29T20:09:40.414+08:00,437,0.874000,0,1003,2,997,2,3.000000,2.000000,-3.000000,2.000000
39398,2026-07-29T20:09:40.414+08:00,438,0.876000,0,999,2,997,2,-1.000000,2.000000,-3.000000,2.000000
39399,2026-07-29T20:09:40.414+08:00,439,0.878000,0,996,2,1001,2,-4.000000,2.000000,1.000000,2.000000
39400,2026-07-29T20:09:40.414+08:00,440,0.880000,0,998,2,1003,2,-2.000000,2.000000,3.000000,2.000000
39401,2026-07-29T20:09:40.414+08:00,441,0.882000,0,1000,2,1001,2,0.000000,2.000000,1.000000,2.000000
39402,2026-07-29T20:09:40.414+08:00,442,0.884000,0,1001,2,998,2,1.000000,2.000000,-2.000000,2.000000
39403,2026-07-29T20:09:40.414+08:00,443,0.886000,0,1000,2,996,2,0.000000,2.000000,-4.000000,2.000000
39404,2026-07-29T20:09:40.414+08:00,444,0.888000,0,1000,2,998,2,0.000000,2.000000,-2.000000,2.000000
39405,2026-07-29T20:09:40.414+08:00,445,0.890000,0,999,2,1001,2,-1.000000,2.000000,1.000000,2.000000
39406,2026-07-29T20:09:40.414+08:00,446,0.892000,0,999,2,1002,2,-1.000000,2.000000,2.000000,2.000000
39407,2026-07-29T20:09:40.418+08:00,447,0.894000,0,999,2,1000,2,-1.000000,2.000000,0.000000,2.000000
39408,2026-07-29T20:09:40.418+08:00,448,0.896000,0,1000,2,998,2,0.000000,2.000000,-2.000000,2.000000
39409,2026-07-29T20:09:40.418+08:00,449,0.898000,0,999,2,998,2,-1.000000,2.000000,-2.000000,2.000000
39410,2026-07-29T20:09:40.437+08:00,450,0.900000,0,998,2,999,2,-2.000000,2.000000,-1.000000,2.000000
39411,2026-07-29T20:09:40.437+08:00,451,0.902000,0,999,2,1000,2,-1.000000,2.000000,0.000000,2.000000
39412,2026-07-29T20:09:40.437+08:00,452,0.904000,0,1003,2,1000,2,3.000000,2.000000,0.000000,2.000000
39413,2026-07-29T20:09:40.437+08:00,453,0.906000,0,1003,2,1000,2,3.000000,2.000000,0.000000,2.000000
39414,2026-07-29T20:09:40.437+08:00,454,0.908000,0,998,2,1000,2,-2.000000,2.000000,0.000000,2.000000
39415,2026-07-29T20:09:40.437+08:00,455,0.910000,0,994,2,1000,2,-6.000000,2.000000,0.000000,2.000000
39416,2026-07-29T20:09:40.444+08:00,456,0.912000,0,997,2,999,2,-3.000000,2.000000,-1.000000,2.000000
39417,2026-07-29T20:09:40.444+08:00,457,0.914000,0,1003,2,999,2,3.000000,2.000000,-1.000000,2.000000
39418,2026-07-29T20:09:40.444+08:00,458,0.916000,0,1005,2,1000,2,5.000000,2.000000,0.000000,2.000000
39419,2026-07-29T20:09:40.444+08:00,459,0.918000,0,999,2,1000,2,-1.000000,2.000000,0.000000,2.000000
39420,2026-07-29T20:09:40.444+08:00,460,0.920000,0,994,2,999,2,-6.000000,2.000000,-1.000000,2.000000
39421,2026-07-29T20:09:40.452+08:00,461,0.922000,0,997,2,999,2,-3.000000,2.000000,-1.000000,2.000000
39422,2026-07-29T20:09:40.452+08:00,462,0.924000,0,1004,4,999,2,4.000000,4.000000,-1.000000,2.000000
39423,2026-07-29T20:09:40.452+08:00,463,0.926000,0,1004,4,1000,2,4.000000,4.000000,0.000000,2.000000
39424,2026-07-29T20:09:40.452+08:00,464,0.928000,0,997,4,1000,2,-3.000000,4.000000,0.000000,2.000000
39425,2026-07-29T20:09:40.477+08:00,465,0.930000,0,993,4,998,2,-7.000000,4.000000,-2.000000,2.000000
39426,2026-07-29T20:09:40.477+08:00,466,0.932000,0,999,4,999,2,-1.000000,4.000000,-1.000000,2.000000
39427,2026-07-29T20:09:40.477+08:00,467,0.934000,0,1005,4,1001,2,5.000000,4.000000,1.000000,2.000000
39428,2026-07-29T20:09:40.477+08:00,468,0.936000,0,1004,4,1001,2,4.000000,4.000000,1.000000,2.000000
39429,2026-07-29T20:09:40.477+08:00,469,0.938000,0,998,4,998,2,-2.000000,4.000000,-2.000000,2.000000
39430,2026-07-29T20:09:40.477+08:00,470,0.940000,0,995,4,996,2,-5.000000,4.000000,-4.000000,2.000000
39431,2026-07-29T20:09:40.477+08:00,471,0.942000,0,998,4,999,2,-2.000000,4.000000,-1.000000,2.000000
39432,2026-07-29T20:09:40.477+08:00,472,0.944000,0,1001,4,1003,2,1.000000,4.000000,3.000000,2.000000
39433,2026-07-29T20:09:40.477+08:00,473,0.946000,0,1000,4,1003,2,0.000000,4.000000,3.000000,2.000000
39434,2026-07-29T20:09:40.477+08:00,474,0.948000,0,998,4,999,2,-2.000000,4.000000,-1.000000,2.000000
39435,2026-07-29T20:09:40.477+08:00,475,0.950000,0,1000,4,997,2,0.000000,4.000000,-3.000000,2.000000
39436,2026-07-29T20:09:40.477+08:00,476,0.952000,0,1003,4,998,2,3.000000,4.000000,-2.000000,2.000000
39437,2026-07-29T20:09:40.478+08:00,477,0.954000,0,1001,4,1000,2,1.000000,4.000000,0.000000,2.000000
39438,2026-07-29T20:09:40.478+08:00,478,0.956000,0,996,4,1000,2,-4.000000,4.000000,0.000000,2.000000
39439,2026-07-29T20:09:40.478+08:00,479,0.958000,0,996,4,1000,2,-4.000000,4.000000,0.000000,2.000000
39440,2026-07-29T20:09:40.487+08:00,480,0.960000,0,1000,4,1001,2,0.000000,4.000000,1.000000,2.000000
39441,2026-07-29T20:09:40.490+08:00,481,0.962000,0,1002,4,1000,2,2.000000,4.000000,0.000000,2.000000
39442,2026-07-29T20:09:40.490+08:00,482,0.964000,0,1001,4,999,2,1.000000,4.000000,-1.000000,2.000000
39443,2026-07-29T20:09:40.490+08:00,483,0.966000,0,999,4,998,2,-1.000000,4.000000,-2.000000,2.000000
39444,2026-07-29T20:09:40.495+08:00,484,0.968000,0,1000,4,998,2,0.000000,4.000000,-2.000000,2.000000
39445,2026-07-29T20:09:40.495+08:00,485,0.970000,0,1001,4,1000,2,1.000000,4.000000,0.000000,2.000000
39446,2026-07-29T20:09:40.495+08:00,486,0.972000,0,998,4,1001,2,-2.000000,4.000000,1.000000,2.000000
39447,2026-07-29T20:09:40.495+08:00,487,0.974000,0,995,4,1001,2,-5.000000,4.000000,1.000000,2.000000
39448,2026-07-29T20:09:40.506+08:00,488,0.976000,0,998,4,1000,2,-2.000000,4.000000,0.000000,2.000000
39449,2026-07-29T20:09:40.506+08:00,489,0.978000,0,1004,4,998,2,4.000000,4.000000,-2.000000,2.000000
39450,2026-07-29T20:09:40.506+08:00,490,0.980000,0,1005,4,998,2,5.000000,4.000000,-2.000000,2.000000
39451,2026-07-29T20:09:40.506+08:00,491,0.982000,0,998,4,1000,2,-2.000000,4.000000,0.000000,2.000000
39452,2026-07-29T20:09:40.506+08:00,492,0.984000,0,994,4,1001,2,-6.000000,4.000000,1.000000,2.000000
39453,2026-07-29T20:09:40.506+08:00,493,0.986000,0,997,4,1001,2,-3.000000,4.000000,1.000000,2.000000
39454,2026-07-29T20:09:40.519+08:00,494,0.988000,0,1002,4,999,2,2.000000,4.000000,-1.000000,2.000000
39455,2026-07-29T20:09:40.520+08:00,495,0.990000,0,1002,4,998,2,2.000000,4.000000,-2.000000,2.000000
39456,2026-07-29T20:09:40.520+08:00,496,0.992000,0,999,4,998,2,-1.000000,4.000000,-2.000000,2.000000
39457,2026-07-29T20:09:40.520+08:00,497,0.994000,0,999,4,999,2,-1.000000,4.000000,-1.000000,2.000000
39458,2026-07-29T20:09:40.545+08:00,498,0.996000,0,1001,4,1000,2,1.000000,4.000000,0.000000,2.000000
39459,2026-07-29T20:09:40.545+08:00,499,0.998000,0,1000,4,1002,2,0.000000,4.000000,2.000000,2.000000
39460,2026-07-29T20:09:40.545+08:00,500,1.000000,0,996,4,1002,2,-4.000000,4.000000,2.000000,2.000000
39461,2026-07-29T20:09:40.545+08:00,501,1.002000,0,996,4,998,2,-4.000000,4.000000,-2.000000,2.000000
39462,2026-07-29T20:09:40.545+08:00,502,1.004000,0,1002,4,994,2,2.000000,4.000000,-6.000000,2.000000
39463,2026-07-29T20:09:40.545+08:00,503,1.006000,0,1006,4,996,2,6.000000,4.000000,-4.000000,2.000000
39464,2026-07-29T20:09:40.545+08:00,504,1.008000,0,1001,4,1003,2,1.000000,4.000000,3.000000,2.000000
39465,2026-07-29T20:09:40.545+08:00,505,1.010000,0,994,4,1007,2,-6.000000,4.000000,7.000000,2.000000
39466,2026-07-29T20:09:40.545+08:00,506,1.012000,0,994,4,1002,2,-6.000000,4.000000,2.000000,2.000000
39467,2026-07-29T20:09:40.545+08:00,507,1.014000,0,1001,4,995,2,1.000000,4.000000,-5.000000,2.000000
39468,2026-07-29T20:09:40.545+08:00,508,1.016000,0,1005,4,993,2,5.000000,4.000000,-7.000000,2.000000
39469,2026-07-29T20:09:40.545+08:00,509,1.018000,0,1001,4,999,2,1.000000,4.000000,-1.000000,2.000000
39470,2026-07-29T20:09:40.548+08:00,510,1.020000,0,996,4,1004,2,-4.000000,4.000000,4.000000,2.000000
39471,2026-07-29T20:09:40.548+08:00,511,1.022000,0,997,4,1002,2,-3.000000,4.000000,2.000000,2.000000
39472,2026-07-29T20:09:40.548+08:00,512,1.024000,0,1000,4,999,2,0.000000,4.000000,-1.000000,2.000000
39473,2026-07-29T20:09:40.551+08:00,513,1.026000,0,1001,4,998,2,1.000000,4.000000,-2.000000,2.000000
39474,2026-07-29T20:09:40.551+08:00,514,1.028000,0,999,4,999,2,-1.000000,4.000000,-1.000000,2.000000
39475,2026-07-29T20:09:40.551+08:00,515,1.030000,0,999,2,1000,2,-1.000000,2.000000,0.000000,2.000000
39476,2026-07-29T20:09:40.554+08:00,516,1.032000,0,1001,2,999,2,1.000000,2.000000,-1.000000,2.000000
39477,2026-07-29T20:09:40.554+08:00,517,1.034000,0,1002,2,1000,2,2.000000,2.000000,0.000000,2.000000
39478,2026-07-29T20:09:40.562+08:00,518,1.036000,0,998,2,1001,2,-2.000000,2.000000,1.000000,2.000000
39479,2026-07-29T20:09:40.573+08:00,519,1.038000,0,995,2,1000,2,-5.000000,2.000000,0.000000,2.000000
39480,2026-07-29T20:09:40.573+08:00,520,1.040000,0,997,2,998,2,-3.000000,2.000000,-2.000000,2.000000
39481,2026-07-29T20:09:40.573+08:00,521,1.042000,0,1004,2,998,2,4.000000,2.000000,-2.000000,2.000000
39482,2026-07-29T20:09:40.573+08:00,522,1.044000,0,1005,4,1001,2,5.000000,4.000000,1.000000,2.000000
39483,2026-07-29T20:09:40.573+08:00,523,1.046000,0,999,4,1002,2,-1.000000,4.000000,2.000000,2.000000
39484,2026-07-29T20:09:40.573+08:00,524,1.048000,0,994,4,1000,2,-6.000000,4.000000,0.000000,2.000000
39485,2026-07-29T20:09:40.598+08:00,525,1.050000,0,996,4,997,2,-4.000000,4.000000,-3.000000,2.000000
39486,2026-07-29T20:09:40.598+08:00,526,1.052000,0,1001,4,997,2,1.000000,4.000000,-3.000000,2.000000
39487,2026-07-29T20:09:40.598+08:00,527,1.054000,0,1003,4,1000,2,3.000000,4.000000,0.000000,2.000000
39488,2026-07-29T20:09:40.598+08:00,528,1.056000,0,1001,4,1002,2,1.000000,4.000000,2.000000,2.000000
39489,2026-07-29T20:09:40.598+08:00,529,1.058000,0,999,4,1001,2,-1.000000,4.000000,1.000000,2.000000
39490,2026-07-29T20:09:40.598+08:00,530,1.060000,0,998,4,998,2,-2.000000,4.000000,-2.000000,2.000000
39491,2026-07-29T20:09:40.598+08:00,531,1.062000,0,999,4,997,2,-1.000000,4.000000,-3.000000,2.000000
39492,2026-07-29T20:09:40.598+08:00,532,1.064000,0,999,4,1000,2,-1.000000,4.000000,0.000000,2.000000
39493,2026-07-29T20:09:40.598+08:00,533,1.066000,0,999,4,1002,2,-1.000000,4.000000,2.000000,2.000000
39494,2026-07-29T20:09:40.598+08:00,534,1.068000,0,1000,4,1000,2,0.000000,4.000000,0.000000,2.000000
39495,2026-07-29T20:09:40.598+08:00,535,1.070000,0,1001,4,996,2,1.000000,4.000000,-4.000000,2.000000
39496,2026-07-29T20:09:40.598+08:00,536,1.072000,0,1000,4,997,2,0.000000,4.000000,-3.000000,2.000000
39497,2026-07-29T20:09:40.598+08:00,537,1.074000,0,1000,4,1001,2,0.000000,4.000000,1.000000,2.000000
39498,2026-07-29T20:09:40.598+08:00,538,1.076000,0,999,4,1003,2,-1.000000,4.000000,3.000000,2.000000
39499,2026-07-29T20:09:40.598+08:00,539,1.078000,0,999,4,1001,2,-1.000000,4.000000,1.000000,2.000000
39500,2026-07-29T20:09:40.612+08:00,540,1.080000,0,998,4,998,2,-2.000000,4.000000,-2.000000,2.000000
39501,2026-07-29T20:09:40.612+08:00,541,1.082000,0,999,4,997,2,-1.000000,4.000000,-3.000000,2.000000
39502,2026-07-29T20:09:40.612+08:00,542,1.084000,0,1000,2,999,2,0.000000,2.000000,-1.000000,2.000000
39503,2026-07-29T20:09:40.612+08:00,543,1.086000,0,1001,2,1000,2,1.000000,2.000000,0.000000,2.000000
39504,2026-07-29T20:09:40.612+08:00,544,1.088000,0,1000,2,1001,2,0.000000,2.000000,1.000000,2.000000
39505,2026-07-29T20:09:40.612+08:00,545,1.090000,0,999,2,1001,2,-1.000000,2.000000,1.000000,2.000000
39506,2026-07-29T20:09:40.613+08:00,546,1.092000,0,999,2,999,2,-1.000000,2.000000,-1.000000,2.000000
39507,2026-07-29T20:09:40.613+08:00,547,1.094000,0,1000,2,997,2,0.000000,2.000000,-3.000000,2.000000
39508,2026-07-29T20:09:40.623+08:00,548,1.096000,0,999,2,998,2,-1.000000,2.000000,-2.000000,2.000000
39509,2026-07-29T20:09:40.623+08:00,549,1.098000,0,999,2,1001,2,-1.000000,2.000000,1.000000,2.000000
39510,2026-07-29T20:09:40.623+08:00,550,1.100000,0,1000,2,1003,2,0.000000,2.000000,3.000000,2.000000
39511,2026-07-29T20:09:40.634+08:00,551,1.102000,0,1001,2,1000,2,1.000000,2.000000,0.000000,2.000000
39512,2026-07-29T20:09:40.634+08:00,552,1.104000,0,1000,2,996,2,0.000000,2.000000,-4.000000,2.000000
39513,2026-07-29T20:09:40.634+08:00,553,1.106000,0,998,2,997,2,-2.000000,2.000000,-3.000000,2.000000
39514,2026-07-29T20:09:40.638+08:00,554,1.108000,0,998,2,1001,2,-2.000000,2.000000,1.000000,2.000000
39515,2026-07-29T20:09:40.638+08:00,555,1.110000,0,1001,2,1003,2,1.000000,2.000000,3.000000,2.000000
39516,2026-07-29T20:09:40.644+08:00,556,1.112000,0,1002,2,1001,2,2.000000,2.000000,1.000000,2.000000
39517,2026-07-29T20:09:40.644+08:00,557,1.114000,0,999,2,998,2,-1.000000,2.000000,-2.000000,2.000000
39518,2026-07-29T20:09:40.644+08:00,558,1.116000,0,996,2,997,2,-4.000000,2.000000,-3.000000,2.000000
39519,2026-07-29T20:09:40.644+08:00,559,1.118000,0,998,2,999,2,-2.000000,2.000000,-1.000000,2.000000
39520,2026-07-29T20:09:40.644+08:00,560,1.120000,0,1002,2,1000,2,2.000000,2.000000,0.000000,2.000000
39521,2026-07-29T20:09:40.644+08:00,561,1.122000,0,1003,2,1001,2,3.000000,2.000000,1.000000,2.000000
39522,2026-07-29T20:09:40.644+08:00,562,1.124000,0,1000,2,1001,2,0.000000,2.000000,1.000000,2.000000
39523,2026-07-29T20:09:40.670+08:00,563,1.126000,0,996,2,1000,2,-4.000000,2.000000,0.000000,2.000000
39524,2026-07-29T20:09:40.670+08:00,564,1.128000,0,997,2,998,2,-3.000000,2.000000,-2.000000,2.000000
39525,2026-07-29T20:09:40.670+08:00,565,1.130000,0,1002,2,998,2,2.000000,2.000000,-2.000000,2.000000
39526,2026-07-29T20:09:40.670+08:00,566,1.132000,0,1003,2,1000,2,3.000000,2.000000,0.000000,2.000000
39527,2026-07-29T20:09:40.670+08:00,567,1.134000,0,999,2,1002,2,-1.000000,2.000000,2.000000,2.000000
39528,2026-07-29T20:09:40.670+08:00,568,1.136000,0,995,2,1000,2,-5.000000,2.000000,0.000000,2.000000
39529,2026-07-29T20:09:40.670+08:00,569,1.138000,0,997,2,997,2,-3.000000,2.000000,-3.000000,2.000000
39530,2026-07-29T20:09:40.670+08:00,570,1.140000,0,1002,2,999,2,2.000000,2.000000,-1.000000,2.000000
39531,2026-07-29T20:09:40.670+08:00,571,1.142000,0,1004,2,1001,2,4.000000,2.000000,1.000000,2.000000
39532,2026-07-29T20:09:40.670+08:00,572,1.144000,0,1001,2,1001,2,1.000000,2.000000,1.000000,2.000000
39533,2026-07-29T20:09:40.670+08:00,573,1.146000,0,996,2,999,2,-4.000000,2.000000,-1.000000,2.000000
39534,2026-07-29T20:09:40.670+08:00,574,1.148000,0,995,2,999,2,-5.000000,2.000000,-1.000000,2.000000
39535,2026-07-29T20:09:40.697+08:00,575,1.150000,0,999,2,1001,2,-1.000000,2.000000,1.000000,2.000000
39536,2026-07-29T20:09:40.697+08:00,576,1.152000,0,1002,2,1000,2,2.000000,2.000000,0.000000,2.000000
39537,2026-07-29T20:09:40.697+08:00,577,1.154000,0,1002,2,998,2,2.000000,2.000000,-2.000000,2.000000
39538,2026-07-29T20:09:40.697+08:00,578,1.156000,0,999,2,997,2,-1.000000,2.000000,-3.000000,2.000000
39539,2026-07-29T20:09:40.697+08:00,579,1.158000,0,998,2,1000,2,-2.000000,2.000000,0.000000,2.000000
39540,2026-07-29T20:09:40.697+08:00,580,1.160000,0,999,2,1003,2,-1.000000,2.000000,3.000000,2.000000
39541,2026-07-29T20:09:40.697+08:00,581,1.162000,0,1001,2,1002,2,1.000000,2.000000,2.000000,2.000000
39542,2026-07-29T20:09:40.697+08:00,582,1.164000,0,1000,2,999,2,0.000000,2.000000,-1.000000,2.000000
39543,2026-07-29T20:09:40.697+08:00,583,1.166000,0,998,2,996,2,-2.000000,2.000000,-4.000000,2.000000
39544,2026-07-29T20:09:40.697+08:00,584,1.168000,0,998,2,997,2,-2.000000,2.000000,-3.000000,2.000000
39545,2026-07-29T20:09:40.699+08:00,585,1.170000,0,1000,2,1001,2,0.000000,2.000000,1.000000,2.000000
39546,2026-07-29T20:09:40.699+08:00,586,1.172000,0,1002,2,1002,2,2.000000,2.000000,2.000000,2.000000
39547,2026-07-29T20:09:40.699+08:00,587,1.174000,0,1002,2,1000,2,2.000000,2.000000,0.000000,2.000000
39548,2026-07-29T20:09:40.701+08:00,588,1.176000,0,999,2,999,2,-1.000000,2.000000,-1.000000,2.000000
39549,2026-07-29T20:09:40.701+08:00,589,1.178000,0,997,2,999,2,-3.000000,2.000000,-1.000000,2.000000
39550,2026-07-29T20:09:40.701+08:00,590,1.180000,0,997,2,1000,2,-3.000000,2.000000,0.000000,2.000000
39551,2026-07-29T20:09:40.705+08:00,591,1.182000,0,1000,2,999,2,0.000000,2.000000,-1.000000,2.000000
39552,2026-07-29T20:09:40.705+08:00,592,1.184000,0,1002,2,998,2,2.000000,2.000000,-2.000000,2.000000
39553,2026-07-29T20:09:40.711+08:00,593,1.186000,0,1001,2,998,2,1.000000,2.000000,-2.000000,2.000000
39554,2026-07-29T20:09:40.715+08:00,594,1.188000,0,999,2,1001,2,-1.000000,2.000000,1.000000,2.000000
39555,2026-07-29T20:09:40.715+08:00,595,1.190000,0,999,2,1002,2,-1.000000,2.000000,2.000000,2.000000
39556,2026-07-29T20:09:40.715+08:00,596,1.192000,0,1000,2,1000,2,0.000000,2.000000,0.000000,2.000000
39557,2026-07-29T20:09:40.723+08:00,597,1.194000,0,1000,2,999,2,0.000000,2.000000,-1.000000,2.000000
39558,2026-07-29T20:09:40.723+08:00,598,1.196000,0,997,2,999,2,-3.000000,2.000000,-1.000000,2.000000
39559,2026-07-29T20:09:40.723+08:00,599,1.198000,0,997,2,999,2,-3.000000,2.000000,-1.000000,2.000000
39560,2026-07-29T20:09:40.728+08:00,600,1.200000,0,1001,2,998,2,1.000000,2.000000,-2.000000,2.000000
39561,2026-07-29T20:09:40.728+08:00,601,1.202000,0,1004,2,999,2,4.000000,2.000000,-1.000000,2.000000
39562,2026-07-29T20:09:40.728+08:00,602,1.204000,0,1001,2,1002,2,1.000000,2.000000,2.000000,2.000000
39563,2026-07-29T20:09:40.736+08:00,603,1.206000,0,996,2,1003,2,-4.000000,2.000000,3.000000,2.000000
39564,2026-07-29T20:09:40.736+08:00,604,1.208000,0,995,2,999,2,-5.000000,2.000000,-1.000000,2.000000
39565,2026-07-29T20:09:40.736+08:00,605,1.210000,0,1001,2,995,2,1.000000,2.000000,-5.000000,2.000000
39566,2026-07-29T20:09:40.736+08:00,606,1.212000,0,1004,2,996,2,4.000000,2.000000,-4.000000,2.000000
39567,2026-07-29T20:09:40.736+08:00,607,1.214000,0,1000,2,1001,2,0.000000,2.000000,1.000000,2.000000
39568,2026-07-29T20:09:40.762+08:00,608,1.216000,0,996,2,1004,2,-4.000000,2.000000,4.000000,2.000000
39569,2026-07-29T20:09:40.762+08:00,609,1.218000,0,998,2,1001,2,-2.000000,2.000000,1.000000,2.000000
39570,2026-07-29T20:09:40.762+08:00,610,1.220000,0,1003,2,997,2,3.000000,2.000000,-3.000000,2.000000
39571,2026-07-29T20:09:40.778+08:00,611,1.222000,0,1002,2,997,2,2.000000,2.000000,-3.000000,2.000000
39572,2026-07-29T20:09:40.778+08:00,612,1.224000,0,997,2,999,2,-3.000000,2.000000,-1.000000,2.000000
39573,2026-07-29T20:09:40.778+08:00,613,1.226000,0,994,2,1001,2,-6.000000,2.000000,1.000000,2.000000
39574,2026-07-29T20:09:40.778+08:00,614,1.228000,0,999,2,1000,2,-1.000000,2.000000,0.000000,2.000000
39575,2026-07-29T20:09:40.778+08:00,615,1.230000,0,1005,2,999,2,5.000000,2.000000,-1.000000,2.000000
39576,2026-07-29T20:09:40.778+08:00,616,1.232000,0,1005,2,999,2,5.000000,2.000000,-1.000000,2.000000
39577,2026-07-29T20:09:40.778+08:00,617,1.234000,0,997,2,1000,2,-3.000000,2.000000,0.000000,2.000000
39578,2026-07-29T20:09:40.778+08:00,618,1.236000,0,993,2,999,2,-7.000000,2.000000,-1.000000,2.000000
39579,2026-07-29T20:09:40.778+08:00,619,1.238000,0,996,2,997,2,-4.000000,2.000000,-3.000000,2.000000
39580,2026-07-29T20:09:40.778+08:00,620,1.240000,0,1003,2,999,2,3.000000,2.000000,-1.000000,2.000000
39581,2026-07-29T20:09:40.778+08:00,621,1.242000,0,1006,2,1003,2,6.000000,2.000000,3.000000,2.000000
39582,2026-07-29T20:09:40.778+08:00,622,1.244000,0,1003,2,1003,2,3.000000,2.000000,3.000000,2.000000
39583,2026-07-29T20:09:40.778+08:00,623,1.246000,0,996,2,997,2,-4.000000,2.000000,-3.000000,2.000000
39584,2026-07-29T20:09:40.778+08:00,624,1.248000,0,993,2,993,2,-7.000000,2.000000,-7.000000,2.000000
39585,2026-07-29T20:09:40.778+08:00,625,1.250000,0,996,2,997,2,-4.000000,2.000000,-3.000000,2.000000
39586,2026-07-29T20:09:40.778+08:00,626,1.252000,0,1002,2,1004,2,2.000000,2.000000,4.000000,2.000000
39587,2026-07-29T20:09:40.778+08:00,627,1.254000,0,1006,2,1005,2,6.000000,2.000000,5.000000,2.000000
39588,2026-07-29T20:09:40.778+08:00,628,1.256000,0,1004,2,999,2,4.000000,2.000000,-1.000000,2.000000
39589,2026-07-29T20:09:40.778+08:00,629,1.258000,0,997,2,994,2,-3.000000,2.000000,-6.000000,2.000000
39590,2026-07-29T20:09:40.787+08:00,630,1.260000,0,993,2,997,2,-7.000000,2.000000,-3.000000,2.000000
39591,2026-07-29T20:09:40.787+08:00,631,1.262000,0,995,2,1002,2,-5.000000,2.000000,2.000000,2.000000
39592,2026-07-29T20:09:40.787+08:00,632,1.264000,0,1002,2,1003,2,2.000000,2.000000,3.000000,2.000000
39593,2026-07-29T20:09:40.790+08:00,633,1.266000,0,1007,2,999,2,7.000000,2.000000,-1.000000,2.000000
39594,2026-07-29T20:09:40.790+08:00,634,1.268000,0,1003,2,996,2,3.000000,2.000000,-4.000000,2.000000
39595,2026-07-29T20:09:40.790+08:00,635,1.270000,0,996,2,999,2,-4.000000,2.000000,-1.000000,2.000000
39596,2026-07-29T20:09:40.793+08:00,636,1.272000,0,994,2,1002,2,-6.000000,2.000000,2.000000,2.000000
39597,2026-07-29T20:09:40.793+08:00,637,1.274000,0,999,2,1002,2,-1.000000,2.000000,2.000000,2.000000
39598,2026-07-29T20:09:40.803+08:00,638,1.276000,0,1004,2,999,2,4.000000,2.000000,-1.000000,2.000000
39599,2026-07-29T20:09:40.803+08:00,639,1.278000,0,1002,2,997,2,2.000000,2.000000,-3.000000,2.000000
39600,2026-07-29T20:09:40.803+08:00,640,1.280000,0,996,2,998,2,-4.000000,2.000000,-2.000000,2.000000
39601,2026-07-29T20:09:40.808+08:00,641,1.282000,0,995,2,1001,2,-5.000000,2.000000,1.000000,2.000000
39602,2026-07-29T20:09:40.808+08:00,642,1.284000,0,1001,2,1001,2,1.000000,2.000000,1.000000,2.000000
39603,2026-07-29T20:09:40.808+08:00,643,1.286000,0,1005,2,1000,2,5.000000,2.000000,0.000000,2.000000
39604,2026-07-29T20:09:40.808+08:00,644,1.288000,0,1004,2,999,2,4.000000,2.000000,-1.000000,2.000000
39605,2026-07-29T20:09:40.821+08:00,645,1.290000,0,998,2,999,2,-2.000000,2.000000,-1.000000,2.000000
39606,2026-07-29T20:09:40.821+08:00,646,1.292000,0,993,2,1000,2,-7.000000,2.000000,0.000000,2.000000
39607,2026-07-29T20:09:40.821+08:00,647,1.294000,0,994,2,1000,2,-6.000000,2.000000,0.000000,2.000000
39608,2026-07-29T20:09:40.821+08:00,648,1.296000,0,1000,2,999,2,0.000000,2.000000,-1.000000,2.000000
39609,2026-07-29T20:09:40.821+08:00,649,1.298000,0,1006,2,999,2,6.000000,2.000000,-1.000000,2.000000
39610,2026-07-29T20:09:40.821+08:00,650,1.300000,0,1007,4,1000,2,7.000000,4.000000,0.000000,2.000000
39611,2026-07-29T20:09:40.824+08:00,651,1.302000,0,1001,4,1000,2,1.000000,4.000000,0.000000,2.000000
39612,2026-07-29T20:09:40.824+08:00,652,1.304000,0,993,4,1000,2,-7.000000,4.000000,0.000000,2.000000
39613,2026-07-29T20:09:40.863+08:00,653,1.306000,0,991,4,1000,2,-9.000000,4.000000,0.000000,2.000000
39614,2026-07-29T20:09:40.863+08:00,654,1.308000,0,997,4,1000,2,-3.000000,4.000000,0.000000,2.000000
39615,2026-07-29T20:09:40.863+08:00,655,1.310000,0,1004,4,999,2,4.000000,4.000000,-1.000000,2.000000
39616,2026-07-29T20:09:40.863+08:00,656,1.312000,0,1007,4,999,2,7.000000,4.000000,-1.000000,2.000000
39617,2026-07-29T20:09:40.863+08:00,657,1.314000,0,1003,4,999,2,3.000000,4.000000,-1.000000,2.000000
39618,2026-07-29T20:09:40.863+08:00,658,1.316000,0,998,4,999,2,-2.000000,4.000000,-1.000000,2.000000
39619,2026-07-29T20:09:40.863+08:00,659,1.318000,0,994,4,1000,2,-6.000000,4.000000,0.000000,2.000000
39620,2026-07-29T20:09:40.863+08:00,660,1.320000,0,995,4,1001,2,-5.000000,4.000000,1.000000,2.000000
39621,2026-07-29T20:09:40.863+08:00,661,1.322000,0,999,4,1000,2,-1.000000,4.000000,0.000000,2.000000
39622,2026-07-29T20:09:40.863+08:00,662,1.324000,0,1003,4,998,2,3.000000,4.000000,-2.000000,2.000000
39623,2026-07-29T20:09:40.863+08:00,663,1.326000,0,1005,4,998,2,5.000000,4.000000,-2.000000,2.000000
39624,2026-07-29T20:09:40.863+08:00,664,1.328000,0,1002,4,1000,2,2.000000,4.000000,0.000000,2.000000
39625,2026-07-29T20:09:40.863+08:00,665,1.330000,0,997,4,1001,2,-3.000000,4.000000,1.000000,2.000000
39626,2026-07-29T20:09:40.863+08:00,666,1.332000,0,995,4,999,2,-5.000000,4.000000,-1.000000,2.000000
39627,2026-07-29T20:09:40.863+08:00,667,1.334000,0,997,4,998,2,-3.000000,4.000000,-2.000000,2.000000
39628,2026-07-29T20:09:40.863+08:00,668,1.336000,0,1002,4,1000,2,2.000000,4.000000,0.000000,2.000000
39629,2026-07-29T20:09:40.864+08:00,669,1.338000,0,1004,4,1002,2,4.000000,4.000000,2.000000,2.000000
39630,2026-07-29T20:09:40.864+08:00,670,1.340000,0,1002,4,1002,2,2.000000,4.000000,2.000000,2.000000
39631,2026-07-29T20:09:40.864+08:00,671,1.342000,0,998,4,998,2,-2.000000,4.000000,-2.000000,2.000000
39632,2026-07-29T20:09:40.868+08:00,672,1.344000,0,995,4,996,2,-5.000000,4.000000,-4.000000,2.000000
39633,2026-07-29T20:09:40.868+08:00,673,1.346000,0,996,4,998,2,-4.000000,4.000000,-2.000000,2.000000
39634,2026-07-29T20:09:40.868+08:00,674,1.348000,0,1002,4,1001,2,2.000000,4.000000,1.000000,2.000000
39635,2026-07-29T20:09:40.880+08:00,675,1.350000,0,1006,4,1003,2,6.000000,4.000000,3.000000,2.000000
39636,2026-07-29T20:09:40.880+08:00,676,1.352000,0,1003,4,1001,2,3.000000,4.000000,1.000000,2.000000
39637,2026-07-29T20:09:40.880+08:00,677,1.354000,0,995,4,998,2,-5.000000,4.000000,-2.000000,2.000000
39638,2026-07-29T20:09:40.888+08:00,678,1.356000,0,991,4,996,2,-9.000000,4.000000,-4.000000,2.000000
39639,2026-07-29T20:09:40.888+08:00,679,1.358000,0,996,4,998,2,-4.000000,4.000000,-2.000000,2.000000
39640,2026-07-29T20:09:40.888+08:00,680,1.360000,0,1004,4,1001,2,4.000000,4.000000,1.000000,2.000000
39641,2026-07-29T20:09:40.888+08:00,681,1.362000,0,1007,4,1002,2,7.000000,4.000000,2.000000,2.000000
39642,2026-07-29T20:09:40.888+08:00,682,1.364000,0,1002,4,1001,2,2.000000,4.000000,1.000000,2.000000
39643,2026-07-29T20:09:40.907+08:00,683,1.366000,0,996,4,999,2,-4.000000,4.000000,-1.000000,2.000000
39644,2026-07-29T20:09:40.907+08:00,684,1.368000,0,994,4,998,2,-6.000000,4.000000,-2.000000,2.000000
39645,2026-07-29T20:09:40.907+08:00,685,1.370000,0,997,4,998,2,-3.000000,4.000000,-2.000000,2.000000
39646,2026-07-29T20:09:40.907+08:00,686,1.372000,0,1001,4,999,2,1.000000,4.000000,-1.000000,2.000000
39647,2026-07-29T20:09:40.907+08:00,687,1.374000,0,1002,4,1001,2,2.000000,4.000000,1.000000,2.000000
39648,2026-07-29T20:09:40.907+08:00,688,1.376000,0,1002,4,1003,2,2.000000,4.000000,3.000000,2.000000
39649,2026-07-29T20:09:40.907+08:00,689,1.378000,0,1000,4,1001,2,0.000000,4.000000,1.000000,2.000000
39650,2026-07-29T20:09:40.954+08:00,690,1.380000,0,997,4,997,2,-3.000000,4.000000,-3.000000,2.000000
39651,2026-07-29T20:09:40.954+08:00,691,1.382000,0,997,4,995,2,-3.000000,4.000000,-5.000000,2.000000
39652,2026-07-29T20:09:40.954+08:00,692,1.384000,0,999,4,999,2,-1.000000,4.000000,-1.000000,2.000000
39653,2026-07-29T20:09:40.954+08:00,693,1.386000,0,1001,4,1004,2,1.000000,4.000000,4.000000,2.000000
39654,2026-07-29T20:09:40.954+08:00,694,1.388000,0,1001,4,1004,2,1.000000,4.000000,4.000000,2.000000
39655,2026-07-29T20:09:40.954+08:00,695,1.390000,0,999,4,998,2,-1.000000,4.000000,-2.000000,2.000000
39656,2026-07-29T20:09:40.954+08:00,696,1.392000,0,999,4,994,2,-1.000000,4.000000,-6.000000,2.000000
39657,2026-07-29T20:09:40.954+08:00,697,1.394000,0,1000,4,997,2,0.000000,4.000000,-3.000000,2.000000
39658,2026-07-29T20:09:40.954+08:00,698,1.396000,0,1000,4,1001,2,0.000000,4.000000,1.000000,2.000000
39659,2026-07-29T20:09:40.954+08:00,699,1.398000,0,999,4,1002,2,-1.000000,4.000000,2.000000,2.000000
39660,2026-07-29T20:09:40.954+08:00,700,1.400000,0,998,4,1002,2,-2.000000,4.000000,2.000000,2.000000
39661,2026-07-29T20:09:40.954+08:00,701,1.402000,0,999,4,1001,2,-1.000000,4.000000,1.000000,2.000000
39662,2026-07-29T20:09:40.954+08:00,702,1.404000,0,1000,4,999,2,0.000000,4.000000,-1.000000,2.000000
39663,2026-07-29T20:09:40.954+08:00,703,1.406000,0,1001,4,995,2,1.000000,4.000000,-5.000000,2.000000
39664,2026-07-29T20:09:40.954+08:00,704,1.408000,0,1000,4,995,2,0.000000,4.000000,-5.000000,2.000000
39665,2026-07-29T20:09:40.954+08:00,705,1.410000,0,998,4,1000,2,-2.000000,4.000000,0.000000,2.000000
39666,2026-07-29T20:09:40.954+08:00,706,1.412000,0,998,4,1006,2,-2.000000,4.000000,6.000000,2.000000
39667,2026-07-29T20:09:40.954+08:00,707,1.414000,0,1000,4,1004,2,0.000000,4.000000,4.000000,2.000000
39668,2026-07-29T20:09:40.954+08:00,708,1.416000,0,1001,4,997,2,1.000000,4.000000,-3.000000,2.000000
39669,2026-07-29T20:09:40.954+08:00,709,1.418000,0,1000,4,993,2,0.000000,4.000000,-7.000000,2.000000
39670,2026-07-29T20:09:40.954+08:00,710,1.420000,0,998,4,998,2,-2.000000,4.000000,-2.000000,2.000000
39671,2026-07-29T20:09:40.954+08:00,711,1.422000,0,998,4,1003,2,-2.000000,4.000000,3.000000,2.000000
39672,2026-07-29T20:09:40.954+08:00,712,1.424000,0,999,4,1002,2,-1.000000,4.000000,2.000000,2.000000
39673,2026-07-29T20:09:40.954+08:00,713,1.426000,0,1001,4,997,2,1.000000,4.000000,-3.000000,2.000000
39674,2026-07-29T20:09:40.954+08:00,714,1.428000,0,1001,4,997,2,1.000000,4.000000,-3.000000,2.000000
39675,2026-07-29T20:09:40.954+08:00,715,1.430000,0,1000,4,1002,2,0.000000,4.000000,2.000000,2.000000
39676,2026-07-29T20:09:40.955+08:00,716,1.432000,0,998,4,1005,2,-2.000000,4.000000,5.000000,2.000000
39677,2026-07-29T20:09:40.955+08:00,717,1.434000,0,998,4,1000,2,-2.000000,4.000000,0.000000,2.000000
39678,2026-07-29T20:09:40.955+08:00,718,1.436000,0,999,4,993,2,-1.000000,4.000000,-7.000000,2.000000
39679,2026-07-29T20:09:40.957+08:00,719,1.438000,0,1001,4,994,2,1.000000,4.000000,-6.000000,2.000000
39680,2026-07-29T20:09:40.970+08:00,720,1.440000,0,1002,4,1002,2,2.000000,4.000000,2.000000,2.000000
39681,2026-07-29T20:09:40.970+08:00,721,1.442000,0,1000,4,1007,2,0.000000,4.000000,7.000000,2.000000
39682,2026-07-29T20:09:40.970+08:00,722,1.444000,0,996,4,1003,2,-4.000000,4.000000,3.000000,2.000000
39683,2026-07-29T20:09:40.977+08:00,723,1.446000,0,997,4,995,2,-3.000000,4.000000,-5.000000,2.000000
39684,2026-07-29T20:09:40.977+08:00,724,1.448000,0,1002,4,994,2,2.000000,4.000000,-6.000000,2.000000
39685,2026-07-29T20:09:40.977+08:00,725,1.450000,0,1004,4,999,2,4.000000,4.000000,-1.000000,2.000000
39686,2026-07-29T20:09:40.977+08:00,726,1.452000,0,999,4,1004,2,-1.000000,4.000000,4.000000,2.000000
39687,2026-07-29T20:09:40.977+08:00,727,1.454000,0,995,4,1002,2,-5.000000,4.000000,2.000000,2.000000
39688,2026-07-29T20:09:40.989+08:00,728,1.456000,0,997,4,998,2,-3.000000,4.000000,-2.000000,2.000000
39689,2026-07-29T20:09:40.989+08:00,729,1.458000,0,1003,4,997,2,3.000000,4.000000,-3.000000,2.000000
39690,2026-07-29T20:09:40.989+08:00,730,1.460000,0,1004,4,999,2,4.000000,4.000000,-1.000000,2.000000
39691,2026-07-29T20:09:40.989+08:00,731,1.462000,0,999,4,1001,2,-1.000000,4.000000,1.000000,2.000000
39692,2026-07-29T20:09:40.989+08:00,732,1.464000,0,995,4,1001,2,-5.000000,4.000000,1.000000,2.000000
39693,2026-07-29T20:09:40.989+08:00,733,1.466000,0,997,4,999,2,-3.000000,4.000000,-1.000000,2.000000
39694,2026-07-29T20:09:40.989+08:00,734,1.468000,0,1002,4,999,2,2.000000,4.000000,-1.000000,2.000000
39695,2026-07-29T20:09:41.038+08:00,735,1.470000,0,1003,4,999,2,3.000000,4.000000,-1.000000,2.000000
39696,2026-07-29T20:09:41.038+08:00,736,1.472000,0,1000,4,999,2,0.000000,4.000000,-1.000000,2.000000
39697,2026-07-29T20:09:41.038+08:00,737,1.474000,0,996,4,999,2,-4.000000,4.000000,-1.000000,2.000000
39698,2026-07-29T20:09:41.038+08:00,738,1.476000,0,997,4,1000,2,-3.000000,4.000000,0.000000,2.000000
39699,2026-07-29T20:09:41.038+08:00,739,1.478000,0,1001,4,1000,2,1.000000,4.000000,0.000000,2.000000
39700,2026-07-29T20:09:41.038+08:00,740,1.480000,0,1003,4,1000,2,3.000000,4.000000,0.000000,2.000000
39701,2026-07-29T20:09:41.038+08:00,741,1.482000,0,1000,4,999,2,0.000000,4.000000,-1.000000,2.000000
39702,2026-07-29T20:09:41.038+08:00,742,1.484000,0,997,4,999,2,-3.000000,4.000000,-1.000000,2.000000
39703,2026-07-29T20:09:41.038+08:00,743,1.486000,0,997,4,999,2,-3.000000,4.000000,-1.000000,2.000000
39704,2026-07-29T20:09:41.038+08:00,744,1.488000,0,999,4,998,2,-1.000000,4.000000,-2.000000,2.000000
39705,2026-07-29T20:09:41.038+08:00,745,1.490000,0,1000,4,999,2,0.000000,4.000000,-1.000000,2.000000
39706,2026-07-29T20:09:41.038+08:00,746,1.492000,0,1003,4,1001,2,3.000000,4.000000,1.000000,2.000000
39707,2026-07-29T20:09:41.038+08:00,747,1.494000,0,1003,4,1002,2,3.000000,4.000000,2.000000,2.000000
39708,2026-07-29T20:09:41.038+08:00,748,1.496000,0,999,4,1001,2,-1.000000,4.000000,1.000000,2.000000
39709,2026-07-29T20:09:41.038+08:00,749,1.498000,0,994,4,998,2,-6.000000,4.000000,-2.000000,2.000000
39710,2026-07-29T20:09:41.038+08:00,750,1.500000,0,994,4,997,2,-6.000000,4.000000,-3.000000,2.000000
39711,2026-07-29T20:09:41.038+08:00,751,1.502000,0,1001,4,998,2,1.000000,4.000000,-2.000000,2.000000
39712,2026-07-29T20:09:41.038+08:00,752,1.504000,0,1007,4,1001,2,7.000000,4.000000,1.000000,2.000000
39713,2026-07-29T20:09:41.038+08:00,753,1.506000,0,1004,4,1002,2,4.000000,4.000000,2.000000,2.000000
39714,2026-07-29T20:09:41.038+08:00,754,1.508000,0,997,4,1000,2,-3.000000,4.000000,0.000000,2.000000
39715,2026-07-29T20:09:41.038+08:00,755,1.510000,0,993,4,998,2,-7.000000,4.000000,-2.000000,2.000000
39716,2026-07-29T20:09:41.038+08:00,756,1.512000,0,997,4,999,2,-3.000000,4.000000,-1.000000,2.000000
39717,2026-07-29T20:09:41.038+08:00,757,1.514000,0,1003,4,1000,2,3.000000,4.000000,0.000000,2.000000
39718,2026-07-29T20:09:41.043+08:00,758,1.516000,0,1003,4,1000,2,3.000000,4.000000,0.000000,2.000000
39719,2026-07-29T20:09:41.043+08:00,759,1.518000,0,999,4,997,2,-1.000000,4.000000,-3.000000,2.000000
39720,2026-07-29T20:09:41.043+08:00,760,1.520000,0,998,4,998,2,-2.000000,4.000000,-2.000000,2.000000
39721,2026-07-29T20:09:41.045+08:00,761,1.522000,0,1000,4,1002,2,0.000000,4.000000,2.000000,2.000000
39722,2026-07-29T20:09:41.045+08:00,762,1.524000,0,1002,4,1004,2,2.000000,4.000000,4.000000,2.000000
39723,2026-07-29T20:09:41.045+08:00,763,1.526000,0,999,4,1000,2,-1.000000,4.000000,0.000000,2.000000
39724,2026-07-29T20:09:41.047+08:00,764,1.528000,0,996,4,996,2,-4.000000,4.000000,-4.000000,2.000000
39725,2026-07-29T20:09:41.062+08:00,765,1.530000,0,998,4,996,2,-2.000000,4.000000,-4.000000,2.000000
39726,2026-07-29T20:09:41.062+08:00,766,1.532000,0,1002,4,1001,2,2.000000,4.000000,1.000000,2.000000
39727,2026-07-29T20:09:41.062+08:00,767,1.534000,0,1003,4,1003,2,3.000000,4.000000,3.000000,2.000000
39728,2026-07-29T20:09:41.062+08:00,768,1.536000,0,1000,4,1000,2,0.000000,4.000000,0.000000,2.000000
39729,2026-07-29T20:09:41.062+08:00,769,1.538000,0,998,4,997,2,-2.000000,4.000000,-3.000000,2.000000
39730,2026-07-29T20:09:41.062+08:00,770,1.540000,0,998,4,998,2,-2.000000,4.000000,-2.000000,2.000000
39731,2026-07-29T20:09:41.066+08:00,771,1.542000,0,999,4,1001,2,-1.000000,4.000000,1.000000,2.000000
39732,2026-07-29T20:09:41.066+08:00,772,1.544000,0,998,4,1002,2,-2.000000,4.000000,2.000000,2.000000
39733,2026-07-29T20:09:41.082+08:00,773,1.546000,0,999,4,999,2,-1.000000,4.000000,-1.000000,2.000000
39734,2026-07-29T20:09:41.082+08:00,774,1.548000,0,1002,4,996,2,2.000000,4.000000,-4.000000,2.000000
39735,2026-07-29T20:09:41.082+08:00,775,1.550000,0,1004,4,998,2,4.000000,4.000000,-2.000000,2.000000
39736,2026-07-29T20:09:41.082+08:00,776,1.552000,0,1001,4,1002,2,1.000000,4.000000,2.000000,2.000000
39737,2026-07-29T20:09:41.082+08:00,777,1.554000,0,995,4,1003,2,-5.000000,4.000000,3.000000,2.000000
39738,2026-07-29T20:09:41.082+08:00,778,1.556000,0,994,4,999,2,-6.000000,4.000000,-1.000000,2.000000
39739,2026-07-29T20:09:41.082+08:00,779,1.558000,0,999,4,997,2,-1.000000,4.000000,-3.000000,2.000000
39740,2026-07-29T20:09:41.100+08:00,780,1.560000,0,1005,4,999,2,5.000000,4.000000,-1.000000,2.000000
39741,2026-07-29T20:09:41.100+08:00,781,1.562000,0,1005,4,1001,2,5.000000,4.000000,1.000000,2.000000
39742,2026-07-29T20:09:41.100+08:00,782,1.564000,0,999,4,1000,2,-1.000000,4.000000,0.000000,2.000000
39743,2026-07-29T20:09:41.100+08:00,783,1.566000,0,995,4,997,2,-5.000000,4.000000,-3.000000,2.000000
39744,2026-07-29T20:09:41.100+08:00,784,1.568000,0,997,4,998,2,-3.000000,4.000000,-2.000000,2.000000
39745,2026-07-29T20:09:41.100+08:00,785,1.570000,0,1001,4,1001,2,1.000000,4.000000,1.000000,2.000000
39746,2026-07-29T20:09:41.100+08:00,786,1.572000,0,1002,4,1003,2,2.000000,4.000000,3.000000,2.000000
39747,2026-07-29T20:09:41.100+08:00,787,1.574000,0,999,2,1000,2,-1.000000,2.000000,0.000000,2.000000
39748,2026-07-29T20:09:41.135+08:00,788,1.576000,0,998,2,996,2,-2.000000,2.000000,-4.000000,2.000000
39749,2026-07-29T20:09:41.135+08:00,789,1.578000,0,1001,2,997,2,1.000000,2.000000,-3.000000,2.000000
39750,2026-07-29T20:09:41.135+08:00,790,1.580000,0,1002,2,1000,2,2.000000,2.000000,0.000000,2.000000
39751,2026-07-29T20:09:41.135+08:00,791,1.582000,0,999,2,1002,2,-1.000000,2.000000,2.000000,2.000000
39752,2026-07-29T20:09:41.135+08:00,792,1.584000,0,996,2,1001,2,-4.000000,2.000000,1.000000,2.000000
39753,2026-07-29T20:09:41.135+08:00,793,1.586000,0,997,2,998,2,-3.000000,2.000000,-2.000000,2.000000
39754,2026-07-29T20:09:41.135+08:00,794,1.588000,0,1002,2,998,2,2.000000,2.000000,-2.000000,2.000000
39755,2026-07-29T20:09:41.135+08:00,795,1.590000,0,1002,2,1000,2,2.000000,2.000000,0.000000,2.000000
39756,2026-07-29T20:09:41.135+08:00,796,1.592000,0,999,2,1001,2,-1.000000,2.000000,1.000000,2.000000
39757,2026-07-29T20:09:41.135+08:00,797,1.594000,0,997,2,999,2,-3.000000,2.000000,-1.000000,2.000000
39758,2026-07-29T20:09:41.135+08:00,798,1.596000,0,1000,2,997,2,0.000000,2.000000,-3.000000,2.000000
39759,2026-07-29T20:09:41.135+08:00,799,1.598000,0,1001,2,999,2,1.000000,2.000000,-1.000000,2.000000
39760,2026-07-29T20:09:41.135+08:00,800,1.600000,0,999,2,1002,2,-1.000000,2.000000,2.000000,2.000000
39761,2026-07-29T20:09:41.135+08:00,801,1.602000,0,997,2,1002,2,-3.000000,2.000000,2.000000,2.000000
39762,2026-07-29T20:09:41.135+08:00,802,1.604000,0,998,2,1000,2,-2.000000,2.000000,0.000000,2.000000
39763,2026-07-29T20:09:41.135+08:00,803,1.606000,0,1001,2,998,2,1.000000,2.000000,-2.000000,2.000000
39764,2026-07-29T20:09:41.135+08:00,804,1.608000,0,1002,2,997,2,2.000000,2.000000,-3.000000,2.000000
39765,2026-07-29T20:09:41.135+08:00,805,1.610000,0,1000,2,998,2,0.000000,2.000000,-2.000000,2.000000
39766,2026-07-29T20:09:41.136+08:00,806,1.612000,0,998,2,1001,2,-2.000000,2.000000,1.000000,2.000000
39767,2026-07-29T20:09:41.136+08:00,807,1.614000,0,997,2,1003,2,-3.000000,2.000000,3.000000,2.000000
39768,2026-07-29T20:09:41.136+08:00,808,1.616000,0,998,2,1001,2,-2.000000,2.000000,1.000000,2.000000
39769,2026-07-29T20:09:41.137+08:00,809,1.618000,0,1001,2,998,2,1.000000,2.000000,-2.000000,2.000000
39770,2026-07-29T20:09:41.146+08:00,810,1.620000,0,1002,2,997,2,2.000000,2.000000,-3.000000,2.000000
39771,2026-07-29T20:09:41.151+08:00,811,1.622000,0,1001,2,998,2,1.000000,2.000000,-2.000000,2.000000
39772,2026-07-29T20:09:41.151+08:00,812,1.624000,0,997,2,1000,2,-3.000000,2.000000,0.000000,2.000000
39773,2026-07-29T20:09:41.151+08:00,813,1.626000,0,996,2,1001,2,-4.000000,2.000000,1.000000,2.000000
39774,2026-07-29T20:09:41.153+08:00,814,1.628000,0,999,2,1001,2,-1.000000,2.000000,1.000000,2.000000
39775,2026-07-29T20:09:41.153+08:00,815,1.630000,0,1003,2,999,2,3.000000,2.000000,-1.000000,2.000000
39776,2026-07-29T20:09:41.153+08:00,816,1.632000,0,1003,2,999,2,3.000000,2.000000,-1.000000,2.000000
39777,2026-07-29T20:09:41.153+08:00,817,1.634000,0,998,2,999,2,-2.000000,2.000000,-1.000000,2.000000
39778,2026-07-29T20:09:41.174+08:00,818,1.636000,0,994,2,999,2,-6.000000,2.000000,-1.000000,2.000000
39779,2026-07-29T20:09:41.174+08:00,819,1.638000,0,997,2,999,2,-3.000000,2.000000,-1.000000,2.000000
39780,2026-07-29T20:09:41.174+08:00,820,1.640000,0,1002,2,999,2,2.000000,2.000000,-1.000000,2.000000
39781,2026-07-29T20:09:41.174+08:00,821,1.642000,0,1004,2,1001,2,4.000000,2.000000,1.000000,2.000000
39782,2026-07-29T20:09:41.174+08:00,822,1.644000,0,1001,2,1001,2,1.000000,2.000000,1.000000,2.000000
39783,2026-07-29T20:09:41.174+08:00,823,1.646000,0,998,2,999,2,-2.000000,2.000000,-1.000000,2.000000
39784,2026-07-29T20:09:41.175+08:00,824,1.648000,0,997,2,998,2,-3.000000,2.000000,-2.000000,2.000000
39785,2026-07-29T20:09:41.183+08:00,825,1.650000,0,998,2,999,2,-2.000000,2.000000,-1.000000,2.000000
39786,2026-07-29T20:09:41.183+08:00,826,1.652000,0,999,2,1002,2,-1.000000,2.000000,2.000000,2.000000
39787,2026-07-29T20:09:41.183+08:00,827,1.654000,0,1001,2,1001,2,1.000000,2.000000,1.000000,2.000000
39788,2026-07-29T20:09:41.183+08:00,828,1.656000,0,1002,2,997,2,2.000000,2.000000,-3.000000,2.000000
39789,2026-07-29T20:09:41.201+08:00,829,1.658000,0,1001,2,996,2,1.000000,2.000000,-4.000000,2.000000
39790,2026-07-29T20:09:41.201+08:00,830,1.660000,0,998,2,999,2,-2.000000,2.000000,-1.000000,2.000000
39791,2026-07-29T20:09:41.201+08:00,831,1.662000,0,998,2,1003,2,-2.000000,2.000000,3.000000,2.000000
39792,2026-07-29T20:09:41.201+08:00,832,1.664000,0,1000,2,1003,2,0.000000,2.000000,3.000000,2.000000
39793,2026-07-29T20:09:41.201+08:00,833,1.666000,0,1000,2,998,2,0.000000,2.000000,-2.000000,2.000000
39794,2026-07-29T20:09:41.201+08:00,834,1.668000,0,998,2,996,2,-2.000000,2.000000,-4.000000,2.000000
39795,2026-07-29T20:09:41.201+08:00,835,1.670000,0,998,2,998,2,-2.000000,2.000000,-2.000000,2.000000
39796,2026-07-29T20:09:41.201+08:00,836,1.672000,0,1001,2,1001,2,1.000000,2.000000,1.000000,2.000000
39797,2026-07-29T20:09:41.201+08:00,837,1.674000,0,1003,2,1001,2,3.000000,2.000000,1.000000,2.000000
39798,2026-07-29T20:09:41.201+08:00,838,1.676000,0,1001,2,999,2,1.000000,2.000000,-1.000000,2.000000
39799,2026-07-29T20:09:41.201+08:00,839,1.678000,0,997,2,999,2,-3.000000,2.000000,-1.000000,2.000000
39800,2026-07-29T20:09:41.229+08:00,840,1.680000,0,997,2,1001,2,-3.000000,2.000000,1.000000,2.000000
39801,2026-07-29T20:09:41.229+08:00,841,1.682000,0,1000,2,1001,2,0.000000,2.000000,1.000000,2.000000
39802,2026-07-29T20:09:41.229+08:00,842,1.684000,0,1001,2,999,2,1.000000,2.000000,-1.000000,2.000000
39803,2026-07-29T20:09:41.229+08:00,843,1.686000,0,1000,2,997,2,0.000000,2.000000,-3.000000,2.000000
39804,2026-07-29T20:09:41.229+08:00,844,1.688000,0,998,2,998,2,-2.000000,2.000000,-2.000000,2.000000
39805,2026-07-29T20:09:41.229+08:00,845,1.690000,0,1000,2,1001,2,0.000000,2.000000,1.000000,2.000000
39806,2026-07-29T20:09:41.229+08:00,846,1.692000,0,1002,2,1003,2,2.000000,2.000000,3.000000,2.000000
39807,2026-07-29T20:09:41.229+08:00,847,1.694000,0,999,2,1001,2,-1.000000,2.000000,1.000000,2.000000
39808,2026-07-29T20:09:41.229+08:00,848,1.696000,0,996,2,998,2,-4.000000,2.000000,-2.000000,2.000000
39809,2026-07-29T20:09:41.229+08:00,849,1.698000,0,997,2,997,2,-3.000000,2.000000,-3.000000,2.000000
39810,2026-07-29T20:09:41.229+08:00,850,1.700000,0,1003,2,998,2,3.000000,2.000000,-2.000000,2.000000
39811,2026-07-29T20:09:41.229+08:00,851,1.702000,0,1005,2,1001,2,5.000000,2.000000,1.000000,2.000000
39812,2026-07-29T20:09:41.229+08:00,852,1.704000,0,1000,2,1002,2,0.000000,2.000000,2.000000,2.000000
39813,2026-07-29T20:09:41.229+08:00,853,1.706000,0,994,2,1001,2,-6.000000,2.000000,1.000000,2.000000
39814,2026-07-29T20:09:41.229+08:00,854,1.708000,0,994,2,998,2,-6.000000,2.000000,-2.000000,2.000000
39815,2026-07-29T20:09:41.239+08:00,855,1.710000,0,1001,2,996,2,1.000000,2.000000,-4.000000,2.000000
39816,2026-07-29T20:09:41.239+08:00,856,1.712000,0,1007,2,998,2,7.000000,2.000000,-2.000000,2.000000
39817,2026-07-29T20:09:41.239+08:00,857,1.714000,0,1003,2,1003,2,3.000000,2.000000,3.000000,2.000000
39818,2026-07-29T20:09:41.241+08:00,858,1.716000,0,996,2,1004,2,-4.000000,2.000000,4.000000,2.000000
39819,2026-07-29T20:09:41.241+08:00,859,1.718000,0,994,2,1000,2,-6.000000,2.000000,0.000000,2.000000
39820,2026-07-29T20:09:41.241+08:00,860,1.720000,0,999,2,995,2,-1.000000,2.000000,-5.000000,2.000000
39821,2026-07-29T20:09:41.243+08:00,861,1.722000,0,1003,2,996,2,3.000000,2.000000,-4.000000,2.000000
39822,2026-07-29T20:09:41.243+08:00,862,1.724000,0,1000,2,1000,2,0.000000,2.000000,0.000000,2.000000
39823,2026-07-29T20:09:41.254+08:00,863,1.726000,0,997,2,1002,2,-3.000000,2.000000,2.000000,2.000000
39824,2026-07-29T20:09:41.254+08:00,864,1.728000,0,999,2,1001,2,-1.000000,2.000000,1.000000,2.000000
39825,2026-07-29T20:09:41.254+08:00,865,1.730000,0,1006,2,999,2,6.000000,2.000000,-1.000000,2.000000
39826,2026-07-29T20:09:41.259+08:00,866,1.732000,0,1005,2,1000,2,5.000000,2.000000,0.000000,2.000000
39827,2026-07-29T20:09:41.259+08:00,867,1.734000,0,994,2,1001,2,-6.000000,2.000000,1.000000,2.000000
39828,2026-07-29T20:09:41.259+08:00,868,1.736000,0,986,2,999,2,-14.000000,2.000000,-1.000000,2.000000
39829,2026-07-29T20:09:41.259+08:00,869,1.738000,0,993,4,996,2,-7.000000,4.000000,-4.000000,2.000000
39830,2026-07-29T20:09:41.273+08:00,870,1.740000,0,1009,4,996,2,9.000000,4.000000,-4.000000,2.000000
39831,2026-07-29T20:09:41.273+08:00,871,1.742000,0,1015,4,1001,2,15.000000,4.000000,1.000000,2.000000
39832,2026-07-29T20:09:41.273+08:00,872,1.744000,0,1004,4,1006,2,4.000000,4.000000,6.000000,2.000000
39833,2026-07-29T20:09:41.273+08:00,873,1.746000,0,990,4,1004,2,-10.000000,4.000000,4.000000,2.000000
39834,2026-07-29T20:09:41.273+08:00,874,1.748000,0,987,4,997,2,-13.000000,4.000000,-3.000000,2.000000
39835,2026-07-29T20:09:41.273+08:00,875,1.750000,0,995,4,992,2,-5.000000,4.000000,-8.000000,2.000000
39836,2026-07-29T20:09:41.296+08:00,876,1.752000,0,1003,4,995,2,3.000000,4.000000,-5.000000,2.000000
39837,2026-07-29T20:09:41.296+08:00,877,1.754000,0,1005,4,1002,2,5.000000,4.000000,2.000000,2.000000
39838,2026-07-29T20:09:41.296+08:00,878,1.756000,0,1005,4,1005,2,5.000000,4.000000,5.000000,2.000000
39839,2026-07-29T20:09:41.296+08:00,879,1.758000,0,1005,4,1002,2,5.000000,4.000000,2.000000,2.000000
39840,2026-07-29T20:09:41.296+08:00,880,1.760000,0,1000,4,997,2,0.000000,4.000000,-3.000000,2.000000
39841,2026-07-29T20:09:41.296+08:00,881,1.762000,0,991,4,996,2,-9.000000,4.000000,-4.000000,2.000000
39842,2026-07-29T20:09:41.296+08:00,882,1.764000,0,989,4,998,2,-11.000000,4.000000,-2.000000,2.000000
39843,2026-07-29T20:09:41.296+08:00,883,1.766000,0,999,4,1001,2,-1.000000,4.000000,1.000000,2.000000
39844,2026-07-29T20:09:41.296+08:00,884,1.768000,0,1009,4,1001,2,9.000000,4.000000,1.000000,2.000000
39845,2026-07-29T20:09:41.330+08:00,885,1.770000,0,1008,4,1000,2,8.000000,4.000000,0.000000,2.000000
39846,2026-07-29T20:09:41.330+08:00,886,1.772000,0,998,4,1000,2,-2.000000,4.000000,0.000000,2.000000
39847,2026-07-29T20:09:41.330+08:00,887,1.774000,0,990,4,1000,2,-10.000000,4.000000,0.000000,2.000000
39848,2026-07-29T20:09:41.330+08:00,888,1.776000,0,995,4,999,2,-5.000000,4.000000,-1.000000,2.000000
39849,2026-07-29T20:09:41.330+08:00,889,1.778000,0,1007,4,998,2,7.000000,4.000000,-2.000000,2.000000
39850,2026-07-29T20:09:41.330+08:00,890,1.780000,0,1013,4,999,2,13.000000,4.000000,-1.000000,2.000000
39851,2026-07-29T20:09:41.330+08:00,891,1.782000,0,1000,4,1000,2,0.000000,4.000000,0.000000,2.000000
39852,2026-07-29T20:09:41.330+08:00,892,1.784000,0,978,4,1001,2,-22.000000,4.000000,1.000000,2.000000
39853,2026-07-29T20:09:41.330+08:00,893,1.786000,0,972,6,1000,2,-28.000000,6.000000,0.000000,2.000000
39854,2026-07-29T20:09:41.330+08:00,894,1.788000,0,1005,6,998,2,5.000000,6.000000,-2.000000,2.000000
39855,2026-07-29T20:09:41.330+08:00,895,1.790000,0,1051,6,998,2,51.000000,6.000000,-2.000000,2.000000
39856,2026-07-29T20:09:41.330+08:00,896,1.792000,0,1043,6,1001,2,43.000000,6.000000,1.000000,2.000000
39857,2026-07-29T20:09:41.330+08:00,897,1.794000,0,968,8,1002,2,-32.000000,8.000000,2.000000,2.000000
39858,2026-07-29T20:09:41.330+08:00,898,1.796000,0,913,8,1000,2,-87.000000,8.000000,0.000000,2.000000
39859,2026-07-29T20:09:41.330+08:00,899,1.798000,0,962,10,996,2,-38.000000,10.000000,-4.000000,2.000000
39860,2026-07-29T20:09:41.330+08:00,900,1.800000,0,1068,10,996,2,68.000000,10.000000,-4.000000,2.000000
39861,2026-07-29T20:09:41.330+08:00,901,1.802000,0,1096,12,999,2,96.000000,12.000000,-1.000000,2.000000
39862,2026-07-29T20:09:41.330+08:00,902,1.804000,0,1006,12,1003,2,6.000000,12.000000,3.000000,2.000000
39863,2026-07-29T20:09:41.331+08:00,903,1.806000,0,913,12,1003,2,-87.000000,12.000000,3.000000,2.000000
39864,2026-07-29T20:09:41.331+08:00,904,1.808000,0,932,14,999,2,-68.000000,14.000000,-1.000000,2.000000
39865,2026-07-29T20:09:41.331+08:00,905,1.810000,0,1023,14,996,2,23.000000,14.000000,-4.000000,2.000000
39866,2026-07-29T20:09:41.334+08:00,906,1.812000,0,1067,16,997,2,67.000000,16.000000,-3.000000,2.000000
39867,2026-07-29T20:09:41.334+08:00,907,1.814000,0,1024,16,1000,2,24.000000,16.000000,0.000000,2.000000
39868,2026-07-29T20:09:41.343+08:00,908,1.816000,0,969,16,1002,2,-31.000000,16.000000,2.000000,2.000000
39869,2026-07-29T20:09:41.343+08:00,909,1.818000,0,971,16,1001,2,-29.000000,16.000000,1.000000,2.000000
39870,2026-07-29T20:09:41.343+08:00,910,1.820000,0,1006,16,1000,2,6.000000,16.000000,0.000000,2.000000
39871,2026-07-29T20:09:41.345+08:00,911,1.822000,1,1017,16,998,2,17.000000,16.000000,-2.000000,2.000000
39872,2026-07-29T20:09:41.345+08:00,912,1.824000,1,995,16,999,2,-5.000000,16.000000,-1.000000,2.000000
39873,2026-07-29T20:09:41.345+08:00,913,1.826000,1,981,16,1000,2,-19.000000,16.000000,0.000000,2.000000
39874,2026-07-29T20:09:41.351+08:00,914,1.828000,1,999,16,1000,2,-1.000000,16.000000,0.000000,2.000000
39875,2026-07-29T20:09:41.358+08:00,915,1.830000,1,1026,18,998,2,26.000000,18.000000,-2.000000,2.000000
39876,2026-07-29T20:09:41.358+08:00,916,1.832000,1,1021,18,998,2,21.000000,18.000000,-2.000000,2.000000
39877,2026-07-29T20:09:41.358+08:00,917,1.834000,1,983,18,1000,2,-17.000000,18.000000,0.000000,2.000000
39878,2026-07-29T20:09:41.363+08:00,918,1.836000,1,959,18,1002,2,-41.000000,18.000000,2.000000,2.000000
39879,2026-07-29T20:09:41.363+08:00,919,1.838000,1,984,18,1002,2,-16.000000,18.000000,2.000000,2.000000
39880,2026-07-29T20:09:41.363+08:00,920,1.840000,1,1034,20,999,2,34.000000,20.000000,-1.000000,2.000000
39881,2026-07-29T20:09:41.393+08:00,921,1.842000,1,1046,20,997,2,46.000000,20.000000,-3.000000,2.000000
39882,2026-07-29T20:09:41.393+08:00,922,1.844000,1,998,20,998,2,-2.000000,20.000000,-2.000000,2.000000
39883,2026-07-29T20:09:41.416+08:00,923,1.846000,1,944,20,1000,2,-56.000000,20.000000,0.000000,2.000000
39884,2026-07-29T20:09:41.416+08:00,924,1.848000,1,958,22,1001,2,-42.000000,22.000000,1.000000,2.000000
39885,2026-07-29T20:09:41.416+08:00,925,1.850000,1,1030,22,1001,2,30.000000,22.000000,1.000000,2.000000
39886,2026-07-29T20:09:41.416+08:00,926,1.852000,1,1069,22,1002,2,69.000000,22.000000,2.000000,2.000000
39887,2026-07-29T20:09:41.416+08:00,927,1.854000,1,1020,24,1000,2,20.000000,24.000000,0.000000,2.000000
39888,2026-07-29T20:09:41.416+08:00,928,1.856000,1,941,24,997,2,-59.000000,24.000000,-3.000000,2.000000
39889,2026-07-29T20:09:41.416+08:00,929,1.858000,1,937,24,995,2,-63.000000,24.000000,-5.000000,2.000000
39890,2026-07-29T20:09:41.416+08:00,930,1.860000,1,1012,26,999,2,12.000000,26.000000,-1.000000,2.000000
39891,2026-07-29T20:09:41.416+08:00,931,1.862000,1,1067,26,1003,2,67.000000,26.000000,3.000000,2.000000
39892,2026-07-29T20:09:41.416+08:00,932,1.864000,1,1035,26,1003,2,35.000000,26.000000,3.000000,2.000000
39893,2026-07-29T20:09:41.416+08:00,933,1.866000,1,965,28,999,2,-35.000000,28.000000,-1.000000,2.000000
39894,2026-07-29T20:09:41.416+08:00,934,1.868000,1,944,28,997,2,-56.000000,28.000000,-3.000000,2.000000
39895,2026-07-29T20:09:41.416+08:00,935,1.870000,1,989,28,998,2,-11.000000,28.000000,-2.000000,2.000000
39896,2026-07-29T20:09:41.416+08:00,936,1.872000,1,1040,28,1000,2,40.000000,28.000000,0.000000,2.000000
39897,2026-07-29T20:09:41.416+08:00,937,1.874000,1,1038,30,1000,2,38.000000,30.000000,0.000000,2.000000
39898,2026-07-29T20:09:41.416+08:00,938,1.876000,1,990,30,1000,2,-10.000000,30.000000,0.000000,2.000000
39899,2026-07-29T20:09:41.416+08:00,939,1.878000,1,957,30,1000,2,-43.000000,30.000000,0.000000,2.000000
39900,2026-07-29T20:09:41.416+08:00,940,1.880000,1,982,30,1000,2,-18.000000,30.000000,0.000000,2.000000
39901,2026-07-29T20:09:41.416+08:00,941,1.882000,1,1030,30,999,2,30.000000,30.000000,-1.000000,2.000000
39902,2026-07-29T20:09:41.416+08:00,942,1.884000,1,1035,32,998,2,35.000000,32.000000,-2.000000,2.000000
39903,2026-07-29T20:09:41.416+08:00,943,1.886000,1,990,32,998,2,-10.000000,32.000000,-2.000000,2.000000
39904,2026-07-29T20:09:41.416+08:00,944,1.888000,1,957,32,1001,2,-43.000000,32.000000,1.000000,2.000000
39905,2026-07-29T20:09:41.418+08:00,945,1.890000,1,979,32,1002,2,-21.000000,32.000000,2.000000,2.000000
39906,2026-07-29T20:09:41.418+08:00,946,1.892000,1,1026,32,1000,2,26.000000,32.000000,0.000000,2.000000
39907,2026-07-29T20:09:41.418+08:00,947,1.894000,1,1040,34,997,2,40.000000,34.000000,-3.000000,2.000000
39908,2026-07-29T20:09:41.421+08:00,948,1.896000,1,1007,34,997,2,7.000000,34.000000,-3.000000,2.000000
39909,2026-07-29T20:09:41.421+08:00,949,1.898000,1,967,34,1000,2,-33.000000,34.000000,0.000000,2.000000
39910,2026-07-29T20:09:41.421+08:00,950,1.900000,1,966,34,1003,2,-34.000000,34.000000,3.000000,2.000000
39911,2026-07-29T20:09:41.423+08:00,951,1.902000,1,1001,34,1002,2,1.000000,34.000000,2.000000,2.000000
39912,2026-07-29T20:09:41.423+08:00,952,1.904000,1,1035,34,997,2,35.000000,34.000000,-3.000000,2.000000
39913,2026-07-29T20:09:41.433+08:00,953,1.906000,1,1030,36,995,2,30.000000,36.000000,-5.000000,2.000000
39914,2026-07-29T20:09:41.433+08:00,954,1.908000,1,990,36,998,2,-10.000000,36.000000,-2.000000,2.000000
39915,2026-07-29T20:09:41.433+08:00,955,1.910000,1,958,36,1002,2,-42.000000,36.000000,2.000000,2.000000
39916,2026-07-29T20:09:41.440+08:00,956,1.912000,1,971,36,1003,2,-29.000000,36.000000,3.000000,2.000000
39917,2026-07-29T20:09:41.440+08:00,957,1.914000,1,1015,36,1000,2,15.000000,36.000000,0.000000,2.000000
39918,2026-07-29T20:09:41.440+08:00,958,1.916000,1,1043,38,997,2,43.000000,38.000000,-3.000000,2.000000
39919,2026-07-29T20:09:41.440+08:00,959,1.918000,1,1029,38,997,2,29.000000,38.000000,-3.000000,2.000000
39920,2026-07-29T20:09:41.459+08:00,960,1.920000,1,990,38,998,2,-10.000000,38.000000,-2.000000,2.000000
39921,2026-07-29T20:09:41.459+08:00,961,1.922000,1,963,38,999,2,-37.000000,38.000000,-1.000000,2.000000
39922,2026-07-29T20:09:41.459+08:00,962,1.924000,1,966,38,1000,2,-34.000000,38.000000,0.000000,2.000000
39923,2026-07-29T20:09:41.459+08:00,963,1.926000,1,992,38,1003,2,-8.000000,38.000000,3.000000,2.000000
39924,2026-07-29T20:09:41.459+08:00,964,1.928000,1,1024,40,1003,2,24.000000,40.000000,3.000000,2.000000
39925,2026-07-29T20:09:41.459+08:00,965,1.930000,1,1042,40,998,2,42.000000,40.000000,-2.000000,2.000000
39926,2026-07-29T20:09:41.473+08:00,966,1.932000,1,1027,40,995,2,27.000000,40.000000,-5.000000,2.000000
39927,2026-07-29T20:09:41.473+08:00,967,1.934000,1,980,40,997,2,-20.000000,40.000000,-3.000000,2.000000
39928,2026-07-29T20:09:41.473+08:00,968,1.936000,1,946,42,1002,2,-54.000000,42.000000,2.000000,2.000000
39929,2026-07-29T20:09:41.473+08:00,969,1.938000,1,968,42,1004,2,-32.000000,42.000000,4.000000,2.000000
39930,2026-07-29T20:09:41.473+08:00,970,1.940000,1,1029,42,1001,2,29.000000,42.000000,1.000000,2.000000
39931,2026-07-29T20:09:41.473+08:00,971,1.942000,1,1056,44,997,2,56.000000,44.000000,-3.000000,2.000000
39932,2026-07-29T20:09:41.473+08:00,972,1.944000,1,1014,44,997,2,14.000000,44.000000,-3.000000,2.000000
39933,2026-07-29T20:09:41.473+08:00,973,1.946000,1,955,44,1000,2,-45.000000,44.000000,0.000000,2.000000
39934,2026-07-29T20:09:41.473+08:00,974,1.948000,1,953,44,1002,2,-47.000000,44.000000,2.000000,2.000000
39935,2026-07-29T20:09:41.496+08:00,975,1.950000,1,1012,44,1000,2,12.000000,44.000000,0.000000,2.000000
39936,2026-07-29T20:09:41.496+08:00,976,1.952000,1,1055,46,997,2,55.000000,46.000000,-3.000000,2.000000
39937,2026-07-29T20:09:41.496+08:00,977,1.954000,1,1028,46,997,2,28.000000,46.000000,-3.000000,2.000000
39938,2026-07-29T20:09:41.496+08:00,978,1.956000,1,963,46,1001,2,-37.000000,46.000000,1.000000,2.000000
39939,2026-07-29T20:09:41.496+08:00,979,1.958000,1,941,48,1003,2,-59.000000,48.000000,3.000000,2.000000
39940,2026-07-29T20:09:41.496+08:00,980,1.960000,1,990,48,1001,2,-10.000000,48.000000,1.000000,2.000000
39941,2026-07-29T20:09:41.496+08:00,981,1.962000,1,1050,48,998,2,50.000000,48.000000,-2.000000,2.000000
39942,2026-07-29T20:09:41.496+08:00,982,1.964000,1,1052,50,997,2,52.000000,50.000000,-3.000000,2.000000
39943,2026-07-29T20:09:41.496+08:00,983,1.966000,1,993,50,999,2,-7.000000,50.000000,-1.000000,2.000000
39944,2026-07-29T20:09:41.496+08:00,984,1.968000,1,943,50,1001,2,-57.000000,50.000000,1.000000,2.000000
39945,2026-07-29T20:09:41.496+08:00,985,1.970000,1,960,50,1000,2,-40.000000,50.000000,0.000000,2.000000
39946,2026-07-29T20:09:41.496+08:00,986,1.972000,1,1021,50,999,2,21.000000,50.000000,-1.000000,2.000000
39947,2026-07-29T20:09:41.496+08:00,987,1.974000,1,1051,52,999,2,51.000000,52.000000,-1.000000,2.000000
39948,2026-07-29T20:09:41.496+08:00,988,1.976000,1,1016,52,1000,2,16.000000,52.000000,0.000000,2.000000
39949,2026-07-29T20:09:41.497+08:00,989,1.978000,1,969,52,1001,2,-31.000000,52.000000,1.000000,2.000000
39950,2026-07-29T20:09:41.506+08:00,990,1.980000,1,971,52,1000,2,-29.000000,52.000000,0.000000,2.000000
39951,2026-07-29T20:09:41.517+08:00,991,1.982000,1,1008,52,997,2,8.000000,52.000000,-3.000000,2.000000
39952,2026-07-29T20:09:41.517+08:00,992,1.984000,1,1019,54,997,2,19.000000,54.000000,-3.000000,2.000000
39953,2026-07-29T20:09:41.517+08:00,993,1.986000,1,993,54,1000,2,-7.000000,54.000000,0.000000,2.000000
39954,2026-07-29T20:09:41.517+08:00,994,1.988000,1,979,54,1004,2,-21.000000,54.000000,4.000000,2.000000
39955,2026-07-29T20:09:41.517+08:00,995,1.990000,1,1006,54,1002,2,6.000000,54.000000,2.000000,2.000000
39956,2026-07-29T20:09:41.517+08:00,996,1.992000,1,1035,54,998,2,35.000000,54.000000,-2.000000,2.000000
39957,2026-07-29T20:09:41.517+08:00,997,1.994000,1,1017,54,996,2,17.000000,54.000000,-4.000000,2.000000
39958,2026-07-29T20:09:41.528+08:00,998,1.996000,1,967,54,998,2,-33.000000,54.000000,-2.000000,2.000000
39959,2026-07-29T20:09:41.528+08:00,999,1.998000,1,948,54,1001,2,-52.000000,54.000000,1.000000,2.000000
39960,2026-07-29T20:09:41.528+08:00,1000,2.000000,1,990,54,1002,2,-10.000000,54.000000,2.000000,2.000000
39961,2026-07-29T20:09:41.528+08:00,1001,2.002000,1,1050,56,1000,2,50.000000,56.000000,0.000000,2.000000
39962,2026-07-29T20:09:41.528+08:00,1002,2.004000,1,1059,56,998,2,59.000000,56.000000,-2.000000,2.000000
39963,2026-07-29T20:09:41.528+08:00,1003,2.006000,1,1002,56,999,2,2.000000,56.000000,-1.000000,2.000000
39964,2026-07-29T20:09:41.528+08:00,1004,2.008000,1,941,58,1001,2,-59.000000,58.000000,1.000000,2.000000
39965,2026-07-29T20:09:41.552+08:00,1005,2.010000,1,941,58,1001,2,-59.000000,58.000000,1.000000,2.000000
39966,2026-07-29T20:09:41.552+08:00,1006,2.012000,1,1001,58,998,2,1.000000,58.000000,-2.000000,2.000000
39967,2026-07-29T20:09:41.552+08:00,1007,2.014000,1,1055,58,996,2,55.000000,58.000000,-4.000000,2.000000
39968,2026-07-29T20:09:41.552+08:00,1008,2.016000,1,1051,60,998,2,51.000000,60.000000,-2.000000,2.000000
39969,2026-07-29T20:09:41.552+08:00,1009,2.018000,1,1001,60,1002,2,1.000000,60.000000,2.000000,2.000000
39970,2026-07-29T20:09:41.552+08:00,1010,2.020000,1,956,60,1003,2,-44.000000,60.000000,3.000000,2.000000
39971,2026-07-29T20:09:41.552+08:00,1011,2.022000,1,955,60,999,2,-45.000000,60.000000,-1.000000,2.000000
39972,2026-07-29T20:09:41.552+08:00,1012,2.024000,1,990,60,996,2,-10.000000,60.000000,-4.000000,2.000000
39973,2026-07-29T20:09:41.576+08:00,1013,2.026000,1,1029,60,997,2,29.000000,60.000000,-3.000000,2.000000
39974,2026-07-29T20:09:41.576+08:00,1014,2.028000,1,1039,62,1000,2,39.000000,62.000000,0.000000,2.000000
39975,2026-07-29T20:09:41.576+08:00,1015,2.030000,1,1013,62,1001,2,13.000000,62.000000,1.000000,2.000000
39976,2026-07-29T20:09:41.576+08:00,1016,2.032000,1,978,62,1000,2,-22.000000,62.000000,0.000000,2.000000
39977,2026-07-29T20:09:41.576+08:00,1017,2.034000,1,969,62,999,2,-31.000000,62.000000,-1.000000,2.000000
39978,2026-07-29T20:09:41.576+08:00,1018,2.036000,1,990,62,1000,2,-10.000000,62.000000,0.000000,2.000000
39979,2026-07-29T20:09:41.576+08:00,1019,2.038000,1,1012,62,1000,2,12.000000,62.000000,0.000000,2.000000
39980,2026-07-29T20:09:41.576+08:00,1020,2.040000,1,1012,62,998,2,12.000000,62.000000,-2.000000,2.000000
39981,2026-07-29T20:09:41.576+08:00,1021,2.042000,1,1004,62,998,2,4.000000,62.000000,-2.000000,2.000000
39982,2026-07-29T20:09:41.576+08:00,1022,2.044000,1,1005,62,1002,2,5.000000,62.000000,2.000000,2.000000
39983,2026-07-29T20:09:41.576+08:00,1023,2.046000,1,1006,60,1003,2,6.000000,60.000000,3.000000,2.000000
39984,2026-07-29T20:09:41.576+08:00,1024,2.048000,1,992,60,998,2,-8.000000,60.000000,-2.000000,2.000000
39985,2026-07-29T20:09:41.576+08:00,1025,2.050000,1,975,60,994,2,-25.000000,60.000000,-6.000000,2.000000
39986,2026-07-29T20:09:41.576+08:00,1026,2.052000,1,982,60,997,2,-18.000000,60.000000,-3.000000,2.000000
39987,2026-07-29T20:09:41.576+08:00,1027,2.054000,1,1014,58,1004,2,14.000000,58.000000,4.000000,2.000000
39988,2026-07-29T20:09:41.581+08:00,1028,2.056000,1,1036,58,1006,2,36.000000,58.000000,6.000000,2.000000
39989,2026-07-29T20:09:41.584+08:00,1029,2.058000,1,1019,58,999,2,19.000000,58.000000,-1.000000,2.000000
39990,2026-07-29T20:09:41.584+08:00,1030,2.060000,1,979,58,994,2,-21.000000,58.000000,-6.000000,2.000000
39991,2026-07-29T20:09:41.584+08:00,1031,2.062000,1,961,56,995,2,-39.000000,56.000000,-5.000000,2.000000
39992,2026-07-29T20:09:41.590+08:00,1032,2.064000,1,984,56,1001,2,-16.000000,56.000000,1.000000,2.000000
39993,2026-07-29T20:09:41.590+08:00,1033,2.066000,1,1018,56,1004,2,18.000000,56.000000,4.000000,2.000000
39994,2026-07-29T20:09:41.590+08:00,1034,2.068000,1,1030,56,1003,2,30.000000,56.000000,3.000000,2.000000
39995,2026-07-29T20:09:41.601+08:00,1035,2.070000,1,1015,56,999,2,15.000000,56.000000,-1.000000,2.000000
39996,2026-07-29T20:09:41.630+08:00,1036,2.072000,1,990,54,997,2,-10.000000,54.000000,-3.000000,2.000000
39997,2026-07-29T20:09:41.630+08:00,1037,2.074000,1,976,54,998,2,-24.000000,54.000000,-2.000000,2.000000
39998,2026-07-29T20:09:41.630+08:00,1038,2.076000,1,980,54,1000,2,-20.000000,54.000000,0.000000,2.000000
39999,2026-07-29T20:09:41.630+08:00,1039,2.078000,1,999,54,1000,2,-1.000000,54.000000,0.000000,2.000000
40000,2026-07-29T20:09:41.630+08:00,1040,2.080000,1,1018,54,999,2,18.000000,54.000000,-1.000000,2.000000
40001,2026-07-29T20:09:41.630+08:00,1041,2.082000,1,1022,54,1000,2,22.000000,54.000000,0.000000,2.000000
40002,2026-07-29T20:09:41.630+08:00,1042,2.084000,1,1004,54,1001,2,4.000000,54.000000,1.000000,2.000000
40003,2026-07-29T20:09:41.630+08:00,1043,2.086000,1,982,54,1001,2,-18.000000,54.000000,1.000000,2.000000
40004,2026-07-29T20:09:41.630+08:00,1044,2.088000,1,981,54,998,2,-19.000000,54.000000,-2.000000,2.000000
40005,2026-07-29T20:09:41.630+08:00,1045,2.090000,1,999,54,996,2,-1.000000,54.000000,-4.000000,2.000000
40006,2026-07-29T20:09:41.630+08:00,1046,2.092000,1,1010,54,996,2,10.000000,54.000000,-4.000000,2.000000
40007,2026-07-29T20:09:41.630+08:00,1047,2.094000,1,1004,54,1001,2,4.000000,54.000000,1.000000,2.000000
40008,2026-07-29T20:09:41.630+08:00,1048,2.096000,1,998,54,1005,2,-2.000000,54.000000,5.000000,2.000000
40009,2026-07-29T20:09:41.630+08:00,1049,2.098000,1,1006,52,1003,2,6.000000,52.000000,3.000000,2.000000
40010,2026-07-29T20:09:41.630+08:00,1050,2.100000,1,1010,52,998,2,10.000000,52.000000,-2.000000,2.000000
40011,2026-07-29T20:09:41.630+08:00,1051,2.102000,1,991,52,994,2,-9.000000,52.000000,-6.000000,2.000000
40012,2026-07-29T20:09:41.630+08:00,1052,2.104000,1,973,52,996,2,-27.000000,52.000000,-4.000000,2.000000
40013,2026-07-29T20:09:41.652+08:00,1053,2.106000,1,989,52,1001,2,-11.000000,52.000000,1.000000,2.000000
40014,2026-07-29T20:09:41.652+08:00,1054,2.108000,1,1024,50,1003,2,24.000000,50.000000,3.000000,2.000000
40015,2026-07-29T20:09:41.652+08:00,1055,2.110000,1,1031,52,1000,2,31.000000,52.000000,0.000000,2.000000
40016,2026-07-29T20:09:41.652+08:00,1056,2.112000,1,999,50,998,2,-1.000000,50.000000,-2.000000,2.000000
40017,2026-07-29T20:09:41.652+08:00,1057,2.114000,1,972,50,999,2,-28.000000,50.000000,-1.000000,2.000000
40018,2026-07-29T20:09:41.652+08:00,1058,2.116000,1,980,50,1001,2,-20.000000,50.000000,1.000000,2.000000
40019,2026-07-29T20:09:41.652+08:00,1059,2.118000,1,1004,48,999,2,4.000000,48.000000,-1.000000,2.000000
40020,2026-07-29T20:09:41.652+08:00,1060,2.120000,1,1012,48,997,2,12.000000,48.000000,-3.000000,2.000000
40021,2026-07-29T20:09:41.652+08:00,1061,2.122000,1,1006,48,998,2,6.000000,48.000000,-2.000000,2.000000
40022,2026-07-29T20:09:41.652+08:00,1062,2.124000,1,1005,48,1001,2,5.000000,48.000000,1.000000,2.000000
40023,2026-07-29T20:09:41.652+08:00,1063,2.126000,1,1005,48,1003,2,5.000000,48.000000,3.000000,2.000000
40024,2026-07-29T20:09:41.652+08:00,1064,2.128000,1,994,46,1000,2,-6.000000,46.000000,0.000000,2.000000
40025,2026-07-29T20:09:41.659+08:00,1065,2.130000,1,979,46,996,2,-21.000000,46.000000,-4.000000,2.000000
40026,2026-07-29T20:09:41.659+08:00,1066,2.132000,1,986,46,997,2,-14.000000,46.000000,-3.000000,2.000000
40027,2026-07-29T20:09:41.659+08:00,1067,2.134000,1,1014,46,1001,2,14.000000,46.000000,1.000000,2.000000
40028,2026-07-29T20:09:41.661+08:00,1068,2.136000,1,1030,46,1003,2,30.000000,46.000000,3.000000,2.000000
40029,2026-07-29T20:09:41.661+08:00,1069,2.138000,1,1011,46,1000,2,11.000000,46.000000,0.000000,2.000000
40030,2026-07-29T20:09:41.661+08:00,1070,2.140000,1,976,46,997,2,-24.000000,46.000000,-3.000000,2.000000
40031,2026-07-29T20:09:41.663+08:00,1071,2.142000,1,966,46,997,2,-34.000000,46.000000,-3.000000,2.000000
40032,2026-07-29T20:09:41.663+08:00,1072,2.144000,1,992,46,1001,2,-8.000000,46.000000,1.000000,2.000000
40033,2026-07-29T20:09:41.685+08:00,1073,2.146000,1,1026,46,1002,2,26.000000,46.000000,2.000000,2.000000
40034,2026-07-29T20:09:41.685+08:00,1074,2.148000,1,1034,46,1000,2,34.000000,46.000000,0.000000,2.000000
40035,2026-07-29T20:09:41.685+08:00,1075,2.150000,1,1008,46,997,2,8.000000,46.000000,-3.000000,2.000000
40036,2026-07-29T20:09:41.685+08:00,1076,2.152000,1,973,46,998,2,-27.000000,46.000000,-2.000000,2.000000
40037,2026-07-29T20:09:41.685+08:00,1077,2.154000,1,964,46,1000,2,-36.000000,46.000000,0.000000,2.000000
40038,2026-07-29T20:09:41.685+08:00,1078,2.156000,1,990,46,1001,2,-10.000000,46.000000,1.000000,2.000000
40039,2026-07-29T20:09:41.707+08:00,1079,2.158000,1,1023,46,1000,2,23.000000,46.000000,0.000000,2.000000
40040,2026-07-29T20:09:41.708+08:00,1080,2.160000,1,1028,46,998,2,28.000000,46.000000,-2.000000,2.000000
40041,2026-07-29T20:09:41.708+08:00,1081,2.162000,1,1007,44,999,2,7.000000,44.000000,-1.000000,2.000000
40042,2026-07-29T20:09:41.708+08:00,1082,2.164000,1,988,44,1001,2,-12.000000,44.000000,1.000000,2.000000
40043,2026-07-29T20:09:41.708+08:00,1083,2.166000,1,986,44,1000,2,-14.000000,44.000000,0.000000,2.000000
40044,2026-07-29T20:09:41.708+08:00,1084,2.168000,1,987,44,998,2,-13.000000,44.000000,-2.000000,2.000000
40045,2026-07-29T20:09:41.708+08:00,1085,2.170000,1,990,44,997,2,-10.000000,44.000000,-3.000000,2.000000
40046,2026-07-29T20:09:41.708+08:00,1086,2.172000,1,1005,44,1001,2,5.000000,44.000000,1.000000,2.000000
40047,2026-07-29T20:09:41.708+08:00,1087,2.174000,1,1025,44,1003,2,25.000000,44.000000,3.000000,2.000000
40048,2026-07-29T20:09:41.708+08:00,1088,2.176000,1,1022,44,1001,2,22.000000,44.000000,1.000000,2.000000
40049,2026-07-29T20:09:41.708+08:00,1089,2.178000,1,991,44,996,2,-9.000000,44.000000,-4.000000,2.000000
40050,2026-07-29T20:09:41.708+08:00,1090,2.180000,1,966,44,996,2,-34.000000,44.000000,-4.000000,2.000000
40051,2026-07-29T20:09:41.708+08:00,1091,2.182000,1,979,44,1000,2,-21.000000,44.000000,0.000000,2.000000
40052,2026-07-29T20:09:41.708+08:00,1092,2.184000,1,1014,44,1003,2,14.000000,44.000000,3.000000,2.000000
40053,2026-07-29T20:09:41.708+08:00,1093,2.186000,1,1026,44,1002,2,26.000000,44.000000,2.000000,2.000000
40054,2026-07-29T20:09:41.733+08:00,1094,2.188000,1,1008,42,998,2,8.000000,42.000000,-2.000000,2.000000
40055,2026-07-29T20:09:41.733+08:00,1095,2.190000,1,991,42,997,2,-9.000000,42.000000,-3.000000,2.000000
40056,2026-07-29T20:09:41.733+08:00,1096,2.192000,1,991,42,999,2,-9.000000,42.000000,-1.000000,2.000000
40057,2026-07-29T20:09:41.733+08:00,1097,2.194000,1,998,42,1002,2,-2.000000,42.000000,2.000000,2.000000
40058,2026-07-29T20:09:41.733+08:00,1098,2.196000,1,996,42,1001,2,-4.000000,42.000000,1.000000,2.000000
40059,2026-07-29T20:09:41.733+08:00,1099,2.198000,1,994,40,998,2,-6.000000,40.000000,-2.000000,2.000000
40060,2026-07-29T20:09:41.733+08:00,1100,2.200000,1,999,40,998,2,-1.000000,40.000000,-2.000000,2.000000
40061,2026-07-29T20:09:41.733+08:00,1101,2.202000,1,1008,40,1000,2,8.000000,40.000000,0.000000,2.000000
40062,2026-07-29T20:09:41.733+08:00,1102,2.204000,1,1010,38,1002,2,10.000000,38.000000,2.000000,2.000000
40063,2026-07-29T20:09:41.733+08:00,1103,2.206000,1,1004,38,999,2,4.000000,38.000000,-1.000000,2.000000
40064,2026-07-29T20:09:41.733+08:00,1104,2.208000,1,997,38,997,2,-3.000000,38.000000,-3.000000,2.000000
40065,2026-07-29T20:09:41.733+08:00,1105,2.210000,1,989,38,999,2,-11.000000,38.000000,-1.000000,2.000000
40066,2026-07-29T20:09:41.735+08:00,1106,2.212000,1,984,38,1002,2,-16.000000,38.000000,2.000000,2.000000
40067,2026-07-29T20:09:41.735+08:00,1107,2.214000,1,994,36,1002,2,-6.000000,36.000000,2.000000,2.000000
40068,2026-07-29T20:09:41.735+08:00,1108,2.216000,1,1014,36,998,2,14.000000,36.000000,-2.000000,2.000000
40069,2026-07-29T20:09:41.737+08:00,1109,2.218000,1,1023,36,996,2,23.000000,36.000000,-4.000000,2.000000
40070,2026-07-29T20:09:41.755+08:00,1110,2.220000,1,1008,36,998,2,8.000000,36.000000,-2.000000,2.000000
40071,2026-07-29T20:09:41.755+08:00,1111,2.222000,1,984,36,1003,2,-16.000000,36.000000,3.000000,2.000000
40072,2026-07-29T20:09:41.755+08:00,1112,2.224000,1,977,36,1004,2,-23.000000,36.000000,4.000000,2.000000
40073,2026-07-29T20:09:41.755+08:00,1113,2.226000,1,992,34,1000,2,-8.000000,34.000000,0.000000,2.000000
40074,2026-07-29T20:09:41.755+08:00,1114,2.228000,1,1009,34,995,2,9.000000,34.000000,-5.000000,2.000000
40075,2026-07-29T20:09:41.755+08:00,1115,2.230000,1,1014,34,995,2,14.000000,34.000000,-5.000000,2.000000
40076,2026-07-29T20:09:41.755+08:00,1116,2.232000,1,1010,34,1001,2,10.000000,34.000000,1.000000,2.000000
40077,2026-07-29T20:09:41.755+08:00,1117,2.234000,1,1003,34,1004,2,3.000000,34.000000,4.000000,2.000000
40078,2026-07-29T20:09:41.785+08:00,1118,2.236000,1,990,34,1002,2,-10.000000,34.000000,2.000000,2.000000
40079,2026-07-29T20:09:41.785+08:00,1119,2.238000,1,978,34,997,2,-22.000000,34.000000,-3.000000,2.000000
40080,2026-07-29T20:09:41.785+08:00,1120,2.240000,1,985,34,997,2,-15.000000,34.000000,-3.000000,2.000000
40081,2026-07-29T20:09:41.785+08:00,1121,2.242000,1,1013,34,1000,2,13.000000,34.000000,0.000000,2.000000
40082,2026-07-29T20:09:41.785+08:00,1122,2.244000,1,1030,34,1001,2,30.000000,34.000000,1.000000,2.000000
40083,2026-07-29T20:09:41.785+08:00,1123,2.246000,1,1010,34,999,2,10.000000,34.000000,-1.000000,2.000000
40084,2026-07-29T20:09:41.785+08:00,1124,2.248000,1,980,34,998,2,-20.000000,34.000000,-2.000000,2.000000
40085,2026-07-29T20:09:41.785+08:00,1125,2.250000,1,978,34,1000,2,-22.000000,34.000000,0.000000,2.000000
40086,2026-07-29T20:09:41.785+08:00,1126,2.252000,1,999,32,1002,2,-1.000000,32.000000,2.000000,2.000000
40087,2026-07-29T20:09:41.785+08:00,1127,2.254000,1,1009,32,999,2,9.000000,32.000000,-1.000000,2.000000
40088,2026-07-29T20:09:41.785+08:00,1128,2.256000,1,1003,32,997,2,3.000000,32.000000,-3.000000,2.000000
40089,2026-07-29T20:09:41.785+08:00,1129,2.258000,1,1002,32,998,2,2.000000,32.000000,-2.000000,2.000000
40090,2026-07-29T20:09:41.785+08:00,1130,2.260000,1,1010,30,1001,2,10.000000,30.000000,1.000000,2.000000
40091,2026-07-29T20:09:41.785+08:00,1131,2.262000,1,1006,30,1002,2,6.000000,30.000000,2.000000,2.000000
40092,2026-07-29T20:09:41.785+08:00,1132,2.264000,1,984,30,999,2,-16.000000,30.000000,-1.000000,2.000000
40093,2026-07-29T20:09:41.805+08:00,1133,2.266000,1,973,30,997,2,-27.000000,30.000000,-3.000000,2.000000
40094,2026-07-29T20:09:41.805+08:00,1134,2.268000,1,994,30,998,2,-6.000000,30.000000,-2.000000,2.000000
40095,2026-07-29T20:09:41.805+08:00,1135,2.270000,1,1026,30,1001,2,26.000000,30.000000,1.000000,2.000000
40096,2026-07-29T20:09:41.805+08:00,1136,2.272000,1,1031,28,1002,2,31.000000,28.000000,2.000000,2.000000
40097,2026-07-29T20:09:41.805+08:00,1137,2.274000,1,1000,28,999,2,0.000000,28.000000,-1.000000,2.000000
40098,2026-07-29T20:09:41.805+08:00,1138,2.276000,1,966,28,997,2,-34.000000,28.000000,-3.000000,2.000000
40099,2026-07-29T20:09:41.805+08:00,1139,2.278000,1,969,28,998,2,-31.000000,28.000000,-2.000000,2.000000
40100,2026-07-29T20:09:41.808+08:00,1140,2.280000,1,1005,28,1000,2,5.000000,28.000000,0.000000,2.000000
40101,2026-07-29T20:09:41.808+08:00,1141,2.282000,1,1035,28,1001,2,35.000000,28.000000,1.000000,2.000000
40102,2026-07-29T20:09:41.808+08:00,1142,2.284000,1,1027,28,1001,2,27.000000,28.000000,1.000000,2.000000
40103,2026-07-29T20:09:41.812+08:00,1143,2.286000,1,991,28,1000,2,-9.000000,28.000000,0.000000,2.000000
40104,2026-07-29T20:09:41.812+08:00,1144,2.288000,1,966,28,999,2,-34.000000,28.000000,-1.000000,2.000000
40105,2026-07-29T20:09:41.812+08:00,1145,2.290000,1,976,28,998,2,-24.000000,28.000000,-2.000000,2.000000
40106,2026-07-29T20:09:41.814+08:00,1146,2.292000,1,1008,28,998,2,8.000000,28.000000,-2.000000,2.000000
40107,2026-07-29T20:09:41.814+08:00,1147,2.294000,1,1027,28,999,2,27.000000,28.000000,-1.000000,2.000000
40108,2026-07-29T20:09:41.829+08:00,1148,2.296000,1,1019,28,1001,2,19.000000,28.000000,1.000000,2.000000
40109,2026-07-29T20:09:41.829+08:00,1149,2.298000,1,997,28,1002,2,-3.000000,28.000000,2.000000,2.000000
40110,2026-07-29T20:09:41.829+08:00,1150,2.300000,1,982,28,1000,2,-18.000000,28.000000,0.000000,2.000000
40111,2026-07-29T20:09:41.829+08:00,1151,2.302000,1,979,28,997,2,-21.000000,28.000000,-3.000000,2.000000
40112,2026-07-29T20:09:41.829+08:00,1152,2.304000,1,988,28,997,2,-12.000000,28.000000,-3.000000,2.000000
40113,2026-07-29T20:09:41.829+08:00,1153,2.306000,1,1012,28,999,2,12.000000,28.000000,-1.000000,2.000000
40114,2026-07-29T20:09:41.829+08:00,1154,2.308000,1,1033,28,1002,2,33.000000,28.000000,2.000000,2.000000
40115,2026-07-29T20:09:41.840+08:00,1155,2.310000,1,1022,30,1002,2,22.000000,30.000000,2.000000,2.000000
40116,2026-07-29T20:09:41.840+08:00,1156,2.312000,1,979,28,999,2,-21.000000,28.000000,-1.000000,2.000000
40117,2026-07-29T20:09:41.840+08:00,1157,2.314000,1,955,30,997,2,-45.000000,30.000000,-3.000000,2.000000
40118,2026-07-29T20:09:41.885+08:00,1158,2.316000,1,985,30,998,2,-15.000000,30.000000,-2.000000,2.000000
40119,2026-07-29T20:09:41.885+08:00,1159,2.318000,1,1031,30,1000,2,31.000000,30.000000,0.000000,2.000000
40120,2026-07-29T20:09:41.885+08:00,1160,2.320000,1,1034,30,1002,2,34.000000,30.000000,2.000000,2.000000
40121,2026-07-29T20:09:41.885+08:00,1161,2.322000,1,996,30,1002,2,-4.000000,30.000000,2.000000,2.000000
40122,2026-07-29T20:09:41.885+08:00,1162,2.324000,1,974,30,999,2,-26.000000,30.000000,-1.000000,2.000000
40123,2026-07-29T20:09:41.885+08:00,1163,2.326000,1,990,28,996,2,-10.000000,28.000000,-4.000000,2.000000
40124,2026-07-29T20:09:41.885+08:00,1164,2.328000,1,1010,28,997,2,10.000000,28.000000,-3.000000,2.000000
40125,2026-07-29T20:09:41.885+08:00,1165,2.330000,1,1004,28,1000,2,4.000000,28.000000,0.000000,2.000000
40126,2026-07-29T20:09:41.885+08:00,1166,2.332000,1,991,28,1003,2,-9.000000,28.000000,3.000000,2.000000
40127,2026-07-29T20:09:41.885+08:00,1167,2.334000,1,997,28,1002,2,-3.000000,28.000000,2.000000,2.000000
40128,2026-07-29T20:09:41.885+08:00,1168,2.336000,1,1010,28,998,2,10.000000,28.000000,-2.000000,2.000000
40129,2026-07-29T20:09:41.885+08:00,1169,2.338000,1,1005,28,996,2,5.000000,28.000000,-4.000000,2.000000
40130,2026-07-29T20:09:41.885+08:00,1170,2.340000,1,994,28,998,2,-6.000000,28.000000,-2.000000,2.000000
40131,2026-07-29T20:09:41.885+08:00,1171,2.342000,1,1000,28,1001,2,0.000000,28.000000,1.000000,2.000000
40132,2026-07-29T20:09:41.885+08:00,1172,2.344000,1,1008,28,1002,2,8.000000,28.000000,2.000000,2.000000
40133,2026-07-29T20:09:41.885+08:00,1173,2.346000,1,992,28,999,2,-8.000000,28.000000,-1.000000,2.000000
40134,2026-07-29T20:09:41.885+08:00,1174,2.348000,1,973,28,997,2,-27.000000,28.000000,-3.000000,2.000000
40135,2026-07-29T20:09:41.885+08:00,1175,2.350000,1,992,28,998,2,-8.000000,28.000000,-2.000000,2.000000
40136,2026-07-29T20:09:41.885+08:00,1176,2.352000,1,1035,28,1001,2,35.000000,28.000000,1.000000,2.000000
