frame_index,host_receive_time,recording_sample_index,recording_elapsed_s,button_label,Channel1_raw,Channel2_raw,Channel 3_raw,Channel 4_raw,Channel1_display,Channel2_display,Channel 3_display,Channel 4_display
207930,2026-07-29T19:59:02.975+08:00,0,0.000000,0,993,4,997,2,-7.000000,4.000000,-3.000000,2.000000
207931,2026-07-29T19:59:02.994+08:00,1,0.002000,0,996,4,1003,2,-4.000000,4.000000,3.000000,2.000000
207932,2026-07-29T19:59:02.994+08:00,2,0.004000,0,1003,4,1003,2,3.000000,4.000000,3.000000,2.000000
207933,2026-07-29T19:59:02.994+08:00,3,0.006000,0,1008,4,999,2,8.000000,4.000000,-1.000000,2.000000
207934,2026-07-29T19:59:02.994+08:00,4,0.008000,0,1005,4,997,2,5.000000,4.000000,-3.000000,2.000000
207935,2026-07-29T19:59:02.994+08:00,5,0.010000,0,996,4,1000,2,-4.000000,4.000000,0.000000,2.000000
207936,2026-07-29T19:59:02.994+08:00,6,0.012000,0,992,4,1002,2,-8.000000,4.000000,2.000000,2.000000
207937,2026-07-29T19:59:02.994+08:00,7,0.014000,0,995,4,1000,2,-5.000000,4.000000,0.000000,2.000000
207938,2026-07-29T19:59:02.994+08:00,8,0.016000,0,1002,6,996,2,2.000000,6.000000,-4.000000,2.000000
207939,2026-07-29T19:59:02.994+08:00,9,0.018000,0,1004,6,997,2,4.000000,6.000000,-3.000000,2.000000
207940,2026-07-29T19:59:02.994+08:00,10,0.020000,0,1002,6,1001,2,2.000000,6.000000,1.000000,2.000000
207941,2026-07-29T19:59:03.011+08:00,11,0.022000,0,1000,6,1002,2,0.000000,6.000000,2.000000,2.000000
207942,2026-07-29T19:59:03.011+08:00,12,0.024000,0,1000,6,1000,2,0.000000,6.000000,0.000000,2.000000
207943,2026-07-29T19:59:03.011+08:00,13,0.026000,0,998,4,999,2,-2.000000,4.000000,-1.000000,2.000000
207944,2026-07-29T19:59:03.011+08:00,14,0.028000,0,996,4,1000,2,-4.000000,4.000000,0.000000,2.000000
207945,2026-07-29T19:59:03.011+08:00,15,0.030000,0,996,6,1000,2,-4.000000,6.000000,0.000000,2.000000
207946,2026-07-29T19:59:03.011+08:00,16,0.032000,0,1001,6,997,2,1.000000,6.000000,-3.000000,2.000000
207947,2026-07-29T19:59:03.011+08:00,17,0.034000,0,1005,6,996,2,5.000000,6.000000,-4.000000,2.000000
207948,2026-07-29T19:59:03.011+08:00,18,0.036000,0,1004,6,1000,2,4.000000,6.000000,0.000000,2.000000
207949,2026-07-29T19:59:03.011+08:00,19,0.038000,0,998,6,1005,2,-2.000000,6.000000,5.000000,2.000000
207950,2026-07-29T19:59:03.011+08:00,20,0.040000,0,994,4,1004,2,-6.000000,4.000000,4.000000,2.000000
207951,2026-07-29T19:59:03.026+08:00,21,0.042000,0,995,4,998,2,-5.000000,4.000000,-2.000000,2.000000
207952,2026-07-29T19:59:03.026+08:00,22,0.044000,0,1001,4,994,2,1.000000,4.000000,-6.000000,2.000000
207953,2026-07-29T19:59:03.026+08:00,23,0.046000,0,1004,4,995,2,4.000000,4.000000,-5.000000,2.000000
207954,2026-07-29T19:59:03.026+08:00,24,0.048000,0,1003,4,1001,2,3.000000,4.000000,1.000000,2.000000
207955,2026-07-29T19:59:03.026+08:00,25,0.050000,0,998,4,1004,2,-2.000000,4.000000,4.000000,2.000000
207956,2026-07-29T19:59:03.026+08:00,26,0.052000,0,997,4,1002,2,-3.000000,4.000000,2.000000,2.000000
207957,2026-07-29T19:59:03.026+08:00,27,0.054000,0,998,4,999,2,-2.000000,4.000000,-1.000000,2.000000
207958,2026-07-29T19:59:03.026+08:00,28,0.056000,0,1000,4,999,2,0.000000,4.000000,-1.000000,2.000000
207959,2026-07-29T19:59:03.026+08:00,29,0.058000,0,1000,4,999,2,0.000000,4.000000,-1.000000,2.000000
207960,2026-07-29T19:59:03.037+08:00,30,0.060000,0,999,4,998,2,-1.000000,4.000000,-2.000000,2.000000
207961,2026-07-29T19:59:03.037+08:00,31,0.062000,0,1000,4,997,2,0.000000,4.000000,-3.000000,2.000000
207962,2026-07-29T19:59:03.037+08:00,32,0.064000,0,1001,4,1000,2,1.000000,4.000000,0.000000,2.000000
207963,2026-07-29T19:59:03.049+08:00,33,0.066000,0,1000,4,1003,2,0.000000,4.000000,3.000000,2.000000
207964,2026-07-29T19:59:03.049+08:00,34,0.068000,0,998,4,1003,2,-2.000000,4.000000,3.000000,2.000000
207965,2026-07-29T19:59:03.049+08:00,35,0.070000,0,997,4,1000,2,-3.000000,4.000000,0.000000,2.000000
207966,2026-07-29T19:59:03.049+08:00,36,0.072000,0,999,4,996,2,-1.000000,4.000000,-4.000000,2.000000
207967,2026-07-29T19:59:03.049+08:00,37,0.074000,0,1002,4,994,2,2.000000,4.000000,-6.000000,2.000000
207968,2026-07-29T19:59:03.058+08:00,38,0.076000,0,1001,4,998,2,1.000000,4.000000,-2.000000,2.000000
207969,2026-07-29T19:59:03.058+08:00,39,0.078000,0,999,4,1004,2,-1.000000,4.000000,4.000000,2.000000
207970,2026-07-29T19:59:03.058+08:00,40,0.080000,0,998,4,1005,2,-2.000000,4.000000,5.000000,2.000000
207971,2026-07-29T19:59:03.058+08:00,41,0.082000,0,999,4,1000,2,-1.000000,4.000000,0.000000,2.000000
207972,2026-07-29T19:59:03.058+08:00,42,0.084000,0,1002,4,995,2,2.000000,4.000000,-5.000000,2.000000
207973,2026-07-29T19:59:03.058+08:00,43,0.086000,0,1001,4,995,2,1.000000,4.000000,-5.000000,2.000000
207974,2026-07-29T19:59:03.058+08:00,44,0.088000,0,997,4,1000,2,-3.000000,4.000000,0.000000,2.000000
207975,2026-07-29T19:59:03.075+08:00,45,0.090000,0,996,4,1003,2,-4.000000,4.000000,3.000000,2.000000
207976,2026-07-29T19:59:03.075+08:00,46,0.092000,0,1000,4,1001,2,0.000000,4.000000,1.000000,2.000000
207977,2026-07-29T19:59:03.075+08:00,47,0.094000,0,1004,4,998,2,4.000000,4.000000,-2.000000,2.000000
207978,2026-07-29T19:59:03.075+08:00,48,0.096000,0,1003,4,997,2,3.000000,4.000000,-3.000000,2.000000
207979,2026-07-29T19:59:03.075+08:00,49,0.098000,0,997,4,1000,2,-3.000000,4.000000,0.000000,2.000000
207980,2026-07-29T19:59:03.075+08:00,50,0.100000,0,993,4,1002,2,-7.000000,4.000000,2.000000,2.000000
207981,2026-07-29T19:59:03.075+08:00,51,0.102000,0,996,4,1001,2,-4.000000,4.000000,1.000000,2.000000
207982,2026-07-29T19:59:03.075+08:00,52,0.104000,0,1003,4,997,2,3.000000,4.000000,-3.000000,2.000000
207983,2026-07-29T19:59:03.088+08:00,53,0.106000,0,1006,4,996,2,6.000000,4.000000,-4.000000,2.000000
207984,2026-07-29T19:59:03.088+08:00,54,0.108000,0,1002,4,999,2,2.000000,4.000000,-1.000000,2.000000
207985,2026-07-29T19:59:03.088+08:00,55,0.110000,0,996,4,1004,2,-4.000000,4.000000,4.000000,2.000000
207986,2026-07-29T19:59:03.088+08:00,56,0.112000,0,994,4,1003,2,-6.000000,4.000000,3.000000,2.000000
207987,2026-07-29T19:59:03.088+08:00,57,0.114000,0,998,4,999,2,-2.000000,4.000000,-1.000000,2.000000
207988,2026-07-29T19:59:03.088+08:00,58,0.116000,0,1002,4,996,2,2.000000,4.000000,-4.000000,2.000000
207989,2026-07-29T19:59:03.088+08:00,59,0.118000,0,1003,4,997,2,3.000000,4.000000,-3.000000,2.000000
207990,2026-07-29T19:59:03.100+08:00,60,0.120000,0,1000,4,999,2,0.000000,4.000000,-1.000000,2.000000
207991,2026-07-29T19:59:03.100+08:00,61,0.122000,0,998,4,1001,2,-2.000000,4.000000,1.000000,2.000000
207992,2026-07-29T19:59:03.100+08:00,62,0.124000,0,998,4,1002,2,-2.000000,4.000000,2.000000,2.000000
207993,2026-07-29T19:59:03.100+08:00,63,0.126000,0,999,4,1001,2,-1.000000,4.000000,1.000000,2.000000
207994,2026-07-29T19:59:03.100+08:00,64,0.128000,0,1000,4,999,2,0.000000,4.000000,-1.000000,2.000000
207995,2026-07-29T19:59:03.100+08:00,65,0.130000,0,1000,4,998,2,0.000000,4.000000,-2.000000,2.000000
207996,2026-07-29T19:59:03.106+08:00,66,0.132000,0,1001,4,999,2,1.000000,4.000000,-1.000000,2.000000
207997,2026-07-29T19:59:03.106+08:00,67,0.134000,0,1000,4,1000,2,0.000000,4.000000,0.000000,2.000000
207998,2026-07-29T19:59:03.117+08:00,68,0.136000,0,998,4,999,2,-2.000000,4.000000,-1.000000,2.000000
207999,2026-07-29T19:59:03.118+08:00,69,0.138000,0,997,4,997,2,-3.000000,4.000000,-3.000000,2.000000
208000,2026-07-29T19:59:03.118+08:00,70,0.140000,0,1000,4,1000,2,0.000000,4.000000,0.000000,2.000000
208001,2026-07-29T19:59:03.118+08:00,71,0.142000,0,1002,4,1004,2,2.000000,4.000000,4.000000,2.000000
208002,2026-07-29T19:59:03.118+08:00,72,0.144000,0,1001,4,1003,2,1.000000,4.000000,3.000000,2.000000
208003,2026-07-29T19:59:03.118+08:00,73,0.146000,0,999,4,997,2,-1.000000,4.000000,-3.000000,2.000000
208004,2026-07-29T19:59:03.118+08:00,74,0.148000,0,998,4,994,2,-2.000000,4.000000,-6.000000,2.000000
208005,2026-07-29T19:59:03.141+08:00,75,0.150000,0,998,4,998,2,-2.000000,4.000000,-2.000000,2.000000
208006,2026-07-29T19:59:03.141+08:00,76,0.152000,0,999,4,1003,2,-1.000000,4.000000,3.000000,2.000000
208007,2026-07-29T19:59:03.141+08:00,77,0.154000,0,1001,4,1003,2,1.000000,4.000000,3.000000,2.000000
208008,2026-07-29T19:59:03.141+08:00,78,0.156000,0,1001,4,1000,2,1.000000,4.000000,0.000000,2.000000
208009,2026-07-29T19:59:03.141+08:00,79,0.158000,0,1000,4,997,2,0.000000,4.000000,-3.000000,2.000000
208010,2026-07-29T19:59:03.141+08:00,80,0.160000,0,998,4,998,2,-2.000000,4.000000,-2.000000,2.000000
208011,2026-07-29T19:59:03.141+08:00,81,0.162000,0,998,4,1001,2,-2.000000,4.000000,1.000000,2.000000
208012,2026-07-29T19:59:03.141+08:00,82,0.164000,0,999,4,1001,2,-1.000000,4.000000,1.000000,2.000000
208013,2026-07-29T19:59:03.141+08:00,83,0.166000,0,1001,4,998,2,1.000000,4.000000,-2.000000,2.000000
208014,2026-07-29T19:59:03.154+08:00,84,0.168000,0,1001,4,997,2,1.000000,4.000000,-3.000000,2.000000
208015,2026-07-29T19:59:03.154+08:00,85,0.170000,0,1000,4,1000,2,0.000000,4.000000,0.000000,2.000000
208016,2026-07-29T19:59:03.154+08:00,86,0.172000,0,999,4,1003,2,-1.000000,4.000000,3.000000,2.000000
208017,2026-07-29T19:59:03.154+08:00,87,0.174000,0,998,4,1003,2,-2.000000,4.000000,3.000000,2.000000
208018,2026-07-29T19:59:03.154+08:00,88,0.176000,0,999,4,998,2,-1.000000,4.000000,-2.000000,2.000000
208019,2026-07-29T19:59:03.154+08:00,89,0.178000,0,1001,4,994,2,1.000000,4.000000,-6.000000,2.000000
208020,2026-07-29T19:59:03.156+08:00,90,0.180000,0,1000,4,996,2,0.000000,4.000000,-4.000000,2.000000
208021,2026-07-29T19:59:03.156+08:00,91,0.182000,0,999,4,1002,2,-1.000000,4.000000,2.000000,2.000000
208022,2026-07-29T19:59:03.156+08:00,92,0.184000,0,1000,2,1004,2,0.000000,2.000000,4.000000,2.000000
208023,2026-07-29T19:59:03.160+08:00,93,0.186000,0,1002,4,1001,2,2.000000,4.000000,1.000000,2.000000
208024,2026-07-29T19:59:03.160+08:00,94,0.188000,0,1001,2,997,2,1.000000,2.000000,-3.000000,2.000000
208025,2026-07-29T19:59:03.160+08:00,95,0.190000,0,997,2,997,2,-3.000000,2.000000,-3.000000,2.000000
208026,2026-07-29T19:59:03.162+08:00,96,0.192000,0,995,4,999,2,-5.000000,4.000000,-1.000000,2.000000
208027,2026-07-29T19:59:03.162+08:00,97,0.194000,0,999,4,1000,2,-1.000000,4.000000,0.000000,2.000000
208028,2026-07-29T19:59:03.180+08:00,98,0.196000,0,1003,4,999,2,3.000000,4.000000,-1.000000,2.000000
208029,2026-07-29T19:59:03.180+08:00,99,0.198000,0,1003,2,999,2,3.000000,2.000000,-1.000000,2.000000
208030,2026-07-29T19:59:03.180+08:00,100,0.200000,0,999,2,1000,2,-1.000000,2.000000,0.000000,2.000000
208031,2026-07-29T19:59:03.180+08:00,101,0.202000,0,997,2,1002,2,-3.000000,2.000000,2.000000,2.000000
208032,2026-07-29T19:59:03.180+08:00,102,0.204000,0,997,2,1001,2,-3.000000,2.000000,1.000000,2.000000
208033,2026-07-29T19:59:03.180+08:00,103,0.206000,0,999,2,998,2,-1.000000,2.000000,-2.000000,2.000000
208034,2026-07-29T19:59:03.180+08:00,104,0.208000,0,1000,2,996,2,0.000000,2.000000,-4.000000,2.000000
208035,2026-07-29T19:59:03.192+08:00,105,0.210000,0,1001,2,999,2,1.000000,2.000000,-1.000000,2.000000
208036,2026-07-29T19:59:03.192+08:00,106,0.212000,0,1001,2,1001,2,1.000000,2.000000,1.000000,2.000000
208037,2026-07-29T19:59:03.192+08:00,107,0.214000,0,999,2,1001,2,-1.000000,2.000000,1.000000,2.000000
208038,2026-07-29T19:59:03.192+08:00,108,0.216000,0,998,2,999,2,-2.000000,2.000000,-1.000000,2.000000
208039,2026-07-29T19:59:03.192+08:00,109,0.218000,0,999,2,1000,2,-1.000000,2.000000,0.000000,2.000000
208040,2026-07-29T19:59:03.192+08:00,110,0.220000,0,999,2,1001,2,-1.000000,2.000000,1.000000,2.000000
208041,2026-07-29T19:59:03.213+08:00,111,0.222000,0,999,2,999,2,-1.000000,2.000000,-1.000000,2.000000
208042,2026-07-29T19:59:03.213+08:00,112,0.224000,0,999,2,995,2,-1.000000,2.000000,-5.000000,2.000000
208043,2026-07-29T19:59:03.213+08:00,113,0.226000,0,1001,2,997,2,1.000000,2.000000,-3.000000,2.000000
208044,2026-07-29T19:59:03.213+08:00,114,0.228000,0,1001,2,1003,2,1.000000,2.000000,3.000000,2.000000
208045,2026-07-29T19:59:03.213+08:00,115,0.230000,0,999,2,1006,2,-1.000000,2.000000,6.000000,2.000000
208046,2026-07-29T19:59:03.213+08:00,116,0.232000,0,997,2,1001,2,-3.000000,2.000000,1.000000,2.000000
208047,2026-07-29T19:59:03.213+08:00,117,0.234000,0,998,2,995,2,-2.000000,2.000000,-5.000000,2.000000
208048,2026-07-29T19:59:03.213+08:00,118,0.236000,0,1001,2,994,2,1.000000,2.000000,-6.000000,2.000000
208049,2026-07-29T19:59:03.213+08:00,119,0.238000,0,1001,2,999,2,1.000000,2.000000,-1.000000,2.000000
208050,2026-07-29T19:59:03.217+08:00,120,0.240000,0,1000,2,1003,2,0.000000,2.000000,3.000000,2.000000
208051,2026-07-29T19:59:03.217+08:00,121,0.242000,0,999,2,1003,2,-1.000000,2.000000,3.000000,2.000000
208052,2026-07-29T19:59:03.217+08:00,122,0.244000,0,1001,2,1000,2,1.000000,2.000000,0.000000,2.000000
208053,2026-07-29T19:59:03.219+08:00,123,0.246000,0,1000,2,998,2,0.000000,2.000000,-2.000000,2.000000
208054,2026-07-29T19:59:03.219+08:00,124,0.248000,0,996,2,997,2,-4.000000,2.000000,-3.000000,2.000000
208055,2026-07-29T19:59:03.219+08:00,125,0.250000,0,996,2,999,2,-4.000000,2.000000,-1.000000,2.000000
208056,2026-07-29T19:59:03.222+08:00,126,0.252000,0,1001,2,1000,2,1.000000,2.000000,0.000000,2.000000
208057,2026-07-29T19:59:03.222+08:00,127,0.254000,0,1006,2,1000,2,6.000000,2.000000,0.000000,2.000000
208058,2026-07-29T19:59:03.231+08:00,128,0.256000,0,1004,2,1000,2,4.000000,2.000000,0.000000,2.000000
208059,2026-07-29T19:59:03.231+08:00,129,0.258000,0,997,2,1000,2,-3.000000,2.000000,0.000000,2.000000
208060,2026-07-29T19:59:03.231+08:00,130,0.260000,0,992,2,1001,2,-8.000000,2.000000,1.000000,2.000000
208061,2026-07-29T19:59:03.254+08:00,131,0.262000,0,996,2,1000,2,-4.000000,2.000000,0.000000,2.000000
208062,2026-07-29T19:59:03.254+08:00,132,0.264000,0,1003,2,997,2,3.000000,2.000000,-3.000000,2.000000
208063,2026-07-29T19:59:03.254+08:00,133,0.266000,0,1005,2,996,2,5.000000,2.000000,-4.000000,2.000000
208064,2026-07-29T19:59:03.254+08:00,134,0.268000,0,1002,2,999,2,2.000000,2.000000,-1.000000,2.000000
208065,2026-07-29T19:59:03.254+08:00,135,0.270000,0,997,2,1003,2,-3.000000,2.000000,3.000000,2.000000
208066,2026-07-29T19:59:03.254+08:00,136,0.272000,0,996,2,1004,2,-4.000000,2.000000,4.000000,2.000000
208067,2026-07-29T19:59:03.254+08:00,137,0.274000,0,998,2,1000,2,-2.000000,2.000000,0.000000,2.000000
208068,2026-07-29T19:59:03.254+08:00,138,0.276000,0,999,2,995,2,-1.000000,2.000000,-5.000000,2.000000
208069,2026-07-29T19:59:03.254+08:00,139,0.278000,0,1001,2,995,2,1.000000,2.000000,-5.000000,2.000000
208070,2026-07-29T19:59:03.254+08:00,140,0.280000,0,1002,2,999,2,2.000000,2.000000,-1.000000,2.000000
208071,2026-07-29T19:59:03.254+08:00,141,0.282000,0,1002,2,1003,2,2.000000,2.000000,3.000000,2.000000
208072,2026-07-29T19:59:03.254+08:00,142,0.284000,0,1000,2,1004,2,0.000000,2.000000,4.000000,2.000000
208073,2026-07-29T19:59:03.270+08:00,143,0.286000,0,995,2,999,2,-5.000000,2.000000,-1.000000,2.000000
208074,2026-07-29T19:59:03.270+08:00,144,0.288000,0,995,2,996,2,-5.000000,2.000000,-4.000000,2.000000
208075,2026-07-29T19:59:03.270+08:00,145,0.290000,0,1000,2,997,2,0.000000,2.000000,-3.000000,2.000000
208076,2026-07-29T19:59:03.270+08:00,146,0.292000,0,1005,2,1000,2,5.000000,2.000000,0.000000,2.000000
208077,2026-07-29T19:59:03.270+08:00,147,0.294000,0,1003,2,1001,2,3.000000,2.000000,1.000000,2.000000
208078,2026-07-29T19:59:03.270+08:00,148,0.296000,0,999,2,1000,2,-1.000000,2.000000,0.000000,2.000000
208079,2026-07-29T19:59:03.270+08:00,149,0.298000,0,997,2,999,2,-3.000000,2.000000,-1.000000,2.000000
208080,2026-07-29T19:59:03.284+08:00,150,0.300000,0,998,2,1000,2,-2.000000,2.000000,0.000000,2.000000
208081,2026-07-29T19:59:03.284+08:00,151,0.302000,0,998,2,1000,2,-2.000000,2.000000,0.000000,2.000000
208082,2026-07-29T19:59:03.284+08:00,152,0.304000,0,998,2,999,2,-2.000000,2.000000,-1.000000,2.000000
208083,2026-07-29T19:59:03.284+08:00,153,0.306000,0,1001,2,997,2,1.000000,2.000000,-3.000000,2.000000
208084,2026-07-29T19:59:03.284+08:00,154,0.308000,0,1004,2,999,2,4.000000,2.000000,-1.000000,2.000000
208085,2026-07-29T19:59:03.284+08:00,155,0.310000,0,1002,2,1001,2,2.000000,2.000000,1.000000,2.000000
208086,2026-07-29T19:59:03.284+08:00,156,0.312000,0,997,2,1001,2,-3.000000,2.000000,1.000000,2.000000
208087,2026-07-29T19:59:03.284+08:00,157,0.314000,0,995,2,999,2,-5.000000,2.000000,-1.000000,2.000000
208088,2026-07-29T19:59:03.292+08:00,158,0.316000,0,999,2,999,2,-1.000000,2.000000,-1.000000,2.000000
208089,2026-07-29T19:59:03.292+08:00,159,0.318000,0,1002,2,1000,2,2.000000,2.000000,0.000000,2.000000
208090,2026-07-29T19:59:03.292+08:00,160,0.320000,0,1001,2,1000,2,1.000000,2.000000,0.000000,2.000000
208091,2026-07-29T19:59:03.295+08:00,161,0.322000,0,998,2,997,2,-2.000000,2.000000,-3.000000,2.000000
208092,2026-07-29T19:59:03.295+08:00,162,0.324000,0,998,2,996,2,-2.000000,2.000000,-4.000000,2.000000
208093,2026-07-29T19:59:03.295+08:00,163,0.326000,0,1001,2,1000,2,1.000000,2.000000,0.000000,2.000000
208094,2026-07-29T19:59:03.297+08:00,164,0.328000,0,1001,2,1005,2,1.000000,2.000000,5.000000,2.000000
208095,2026-07-29T19:59:03.308+08:00,165,0.330000,0,998,2,1004,2,-2.000000,2.000000,4.000000,2.000000
208096,2026-07-29T19:59:03.308+08:00,166,0.332000,0,997,2,998,2,-3.000000,2.000000,-2.000000,2.000000
208097,2026-07-29T19:59:03.308+08:00,167,0.334000,0,998,2,992,2,-2.000000,2.000000,-8.000000,2.000000
208098,2026-07-29T19:59:03.308+08:00,168,0.336000,0,1001,2,994,2,1.000000,2.000000,-6.000000,2.000000
208099,2026-07-29T19:59:03.314+08:00,169,0.338000,0,1002,2,1002,2,2.000000,2.000000,2.000000,2.000000
208100,2026-07-29T19:59:03.314+08:00,170,0.340000,0,1000,2,1007,2,0.000000,2.000000,7.000000,2.000000
208101,2026-07-29T19:59:03.314+08:00,171,0.342000,0,998,2,1004,2,-2.000000,2.000000,4.000000,2.000000
208102,2026-07-29T19:59:03.314+08:00,172,0.344000,0,999,2,997,2,-1.000000,2.000000,-3.000000,2.000000
208103,2026-07-29T19:59:03.331+08:00,173,0.346000,0,1001,2,994,2,1.000000,2.000000,-6.000000,2.000000
208104,2026-07-29T19:59:03.331+08:00,174,0.348000,0,1000,2,996,2,0.000000,2.000000,-4.000000,2.000000
208105,2026-07-29T19:59:03.331+08:00,175,0.350000,0,996,2,1000,2,-4.000000,2.000000,0.000000,2.000000
208106,2026-07-29T19:59:03.331+08:00,176,0.352000,0,996,2,1003,2,-4.000000,2.000000,3.000000,2.000000
208107,2026-07-29T19:59:03.331+08:00,177,0.354000,0,1002,2,1002,2,2.000000,2.000000,2.000000,2.000000
208108,2026-07-29T19:59:03.331+08:00,178,0.356000,0,1007,2,1001,2,7.000000,2.000000,1.000000,2.000000
208109,2026-07-29T19:59:03.331+08:00,179,0.358000,0,1003,2,999,2,3.000000,2.000000,-1.000000,2.000000
208110,2026-07-29T19:59:03.345+08:00,180,0.360000,0,994,2,997,2,-6.000000,2.000000,-3.000000,2.000000
208111,2026-07-29T19:59:03.345+08:00,181,0.362000,0,991,2,996,2,-9.000000,2.000000,-4.000000,2.000000
208112,2026-07-29T19:59:03.345+08:00,182,0.364000,0,997,2,999,2,-3.000000,2.000000,-1.000000,2.000000
208113,2026-07-29T19:59:03.345+08:00,183,0.366000,0,1006,2,1003,2,6.000000,2.000000,3.000000,2.000000
208114,2026-07-29T19:59:03.345+08:00,184,0.368000,0,1007,2,1002,2,7.000000,2.000000,2.000000,2.000000
208115,2026-07-29T19:59:03.345+08:00,185,0.370000,0,1001,2,998,2,1.000000,2.000000,-2.000000,2.000000
208116,2026-07-29T19:59:03.345+08:00,186,0.372000,0,995,2,998,2,-5.000000,2.000000,-2.000000,2.000000
208117,2026-07-29T19:59:03.345+08:00,187,0.374000,0,993,2,1000,2,-7.000000,2.000000,0.000000,2.000000
208118,2026-07-29T19:59:03.351+08:00,188,0.376000,0,997,2,1001,2,-3.000000,2.000000,1.000000,2.000000
208119,2026-07-29T19:59:03.351+08:00,189,0.378000,0,1002,2,998,2,2.000000,2.000000,-2.000000,2.000000
208120,2026-07-29T19:59:03.351+08:00,190,0.380000,0,1004,2,996,2,4.000000,2.000000,-4.000000,2.000000
208121,2026-07-29T19:59:03.355+08:00,191,0.382000,0,1001,2,998,2,1.000000,2.000000,-2.000000,2.000000
208122,2026-07-29T19:59:03.355+08:00,192,0.384000,0,997,2,1003,2,-3.000000,2.000000,3.000000,2.000000
208123,2026-07-29T19:59:03.355+08:00,193,0.386000,0,997,2,1004,2,-3.000000,2.000000,4.000000,2.000000
208124,2026-07-29T19:59:03.357+08:00,194,0.388000,0,999,2,1001,2,-1.000000,2.000000,1.000000,2.000000
208125,2026-07-29T19:59:03.368+08:00,195,0.390000,0,1000,2,996,2,0.000000,2.000000,-4.000000,2.000000
208126,2026-07-29T19:59:03.368+08:00,196,0.392000,0,998,2,995,2,-2.000000,2.000000,-5.000000,2.000000
208127,2026-07-29T19:59:03.368+08:00,197,0.394000,0,998,2,997,2,-2.000000,2.000000,-3.000000,2.000000
208128,2026-07-29T19:59:03.373+08:00,198,0.396000,0,1002,2,1002,2,2.000000,2.000000,2.000000,2.000000
208129,2026-07-29T19:59:03.373+08:00,199,0.398000,0,1004,2,1004,2,4.000000,2.000000,4.000000,2.000000
208130,2026-07-29T19:59:03.373+08:00,200,0.400000,0,1000,2,1002,2,0.000000,2.000000,2.000000,2.000000
208131,2026-07-29T19:59:03.373+08:00,201,0.402000,0,994,2,998,2,-6.000000,2.000000,-2.000000,2.000000
208132,2026-07-29T19:59:03.373+08:00,202,0.404000,0,995,2,996,2,-5.000000,2.000000,-4.000000,2.000000
208133,2026-07-29T19:59:03.399+08:00,203,0.406000,0,1001,2,997,2,1.000000,2.000000,-3.000000,2.000000
208134,2026-07-29T19:59:03.399+08:00,204,0.408000,0,1005,2,999,2,5.000000,2.000000,-1.000000,2.000000
208135,2026-07-29T19:59:03.399+08:00,205,0.410000,0,1002,2,1001,2,2.000000,2.000000,1.000000,2.000000
208136,2026-07-29T19:59:03.399+08:00,206,0.412000,0,997,2,1002,2,-3.000000,2.000000,2.000000,2.000000
208137,2026-07-29T19:59:03.399+08:00,207,0.414000,0,996,2,1003,2,-4.000000,2.000000,3.000000,2.000000
208138,2026-07-29T19:59:03.399+08:00,208,0.416000,0,998,2,1000,2,-2.000000,2.000000,0.000000,2.000000
208139,2026-07-29T19:59:03.399+08:00,209,0.418000,0,1000,2,994,2,0.000000,2.000000,-6.000000,2.000000
208140,2026-07-29T19:59:03.399+08:00,210,0.420000,0,1001,2,993,2,1.000000,2.000000,-7.000000,2.000000
208141,2026-07-29T19:59:03.399+08:00,211,0.422000,0,1001,2,1000,2,1.000000,2.000000,0.000000,2.000000
208142,2026-07-29T19:59:03.399+08:00,212,0.424000,0,1001,2,1008,2,1.000000,2.000000,8.000000,2.000000
208143,2026-07-29T19:59:03.400+08:00,213,0.426000,0,999,2,1005,2,-1.000000,2.000000,5.000000,2.000000
208144,2026-07-29T19:59:03.400+08:00,214,0.428000,0,997,2,996,2,-3.000000,2.000000,-4.000000,2.000000
208145,2026-07-29T19:59:03.400+08:00,215,0.430000,0,997,2,992,2,-3.000000,2.000000,-8.000000,2.000000
208146,2026-07-29T19:59:03.416+08:00,216,0.432000,0,999,2,997,2,-1.000000,2.000000,-3.000000,2.000000
208147,2026-07-29T19:59:03.416+08:00,217,0.434000,0,1001,2,1003,2,1.000000,2.000000,3.000000,2.000000
208148,2026-07-29T19:59:03.416+08:00,218,0.436000,0,1002,2,1004,2,2.000000,2.000000,4.000000,2.000000
208149,2026-07-29T19:59:03.416+08:00,219,0.438000,0,1002,2,999,2,2.000000,2.000000,-1.000000,2.000000
208150,2026-07-29T19:59:03.416+08:00,220,0.440000,0,999,2,998,2,-1.000000,2.000000,-2.000000,2.000000
208151,2026-07-29T19:59:03.416+08:00,221,0.442000,0,995,2,999,2,-5.000000,2.000000,-1.000000,2.000000
208152,2026-07-29T19:59:03.416+08:00,222,0.444000,0,995,2,1000,2,-5.000000,2.000000,0.000000,2.000000
208153,2026-07-29T19:59:03.416+08:00,223,0.446000,0,1001,2,1000,2,1.000000,2.000000,0.000000,2.000000
208154,2026-07-29T19:59:03.416+08:00,224,0.448000,0,1005,2,998,2,5.000000,2.000000,-2.000000,2.000000
208155,2026-07-29T19:59:03.425+08:00,225,0.450000,0,1002,2,998,2,2.000000,2.000000,-2.000000,2.000000
208156,2026-07-29T19:59:03.429+08:00,226,0.452000,0,998,2,999,2,-2.000000,2.000000,-1.000000,2.000000
208157,2026-07-29T19:59:03.429+08:00,227,0.454000,0,997,2,1002,2,-3.000000,2.000000,2.000000,2.000000
208158,2026-07-29T19:59:03.429+08:00,228,0.456000,0,998,2,1003,2,-2.000000,2.000000,3.000000,2.000000
208159,2026-07-29T19:59:03.437+08:00,229,0.458000,0,998,2,1000,2,-2.000000,2.000000,0.000000,2.000000
208160,2026-07-29T19:59:03.437+08:00,230,0.460000,0,998,2,997,2,-2.000000,2.000000,-3.000000,2.000000
208161,2026-07-29T19:59:03.437+08:00,231,0.462000,0,1002,2,995,2,2.000000,2.000000,-5.000000,2.000000
208162,2026-07-29T19:59:03.441+08:00,232,0.464000,0,1006,2,998,2,6.000000,2.000000,-2.000000,2.000000
208163,2026-07-29T19:59:03.453+08:00,233,0.466000,0,1003,4,1001,2,3.000000,4.000000,1.000000,2.000000
208164,2026-07-29T19:59:03.453+08:00,234,0.468000,0,993,4,1003,2,-7.000000,4.000000,3.000000,2.000000
208165,2026-07-29T19:59:03.453+08:00,235,0.470000,0,989,4,1003,2,-11.000000,4.000000,3.000000,2.000000
208166,2026-07-29T19:59:03.453+08:00,236,0.472000,0,997,4,1000,2,-3.000000,4.000000,0.000000,2.000000
208167,2026-07-29T19:59:03.453+08:00,237,0.474000,0,1008,4,996,2,8.000000,4.000000,-4.000000,2.000000
208168,2026-07-29T19:59:03.453+08:00,238,0.476000,0,1010,4,993,4,10.000000,4.000000,-7.000000,4.000000
208169,2026-07-29T19:59:03.453+08:00,239,0.478000,0,1000,4,996,4,0.000000,4.000000,-4.000000,4.000000
208170,2026-07-29T19:59:03.467+08:00,240,0.480000,0,991,4,1004,4,-9.000000,4.000000,4.000000,4.000000
208171,2026-07-29T19:59:03.467+08:00,241,0.482000,0,993,4,1008,4,-7.000000,4.000000,8.000000,4.000000
208172,2026-07-29T19:59:03.467+08:00,242,0.484000,0,1001,4,1004,4,1.000000,4.000000,4.000000,4.000000
208173,2026-07-29T19:59:03.467+08:00,243,0.486000,0,1005,4,994,4,5.000000,4.000000,-6.000000,4.000000
208174,2026-07-29T19:59:03.467+08:00,244,0.488000,0,1002,4,991,4,2.000000,4.000000,-9.000000,4.000000
208175,2026-07-29T19:59:03.467+08:00,245,0.490000,0,997,4,997,4,-3.000000,4.000000,-3.000000,4.000000
208176,2026-07-29T19:59:03.467+08:00,246,0.492000,0,998,4,1004,4,-2.000000,4.000000,4.000000,4.000000
208177,2026-07-29T19:59:03.467+08:00,247,0.494000,0,1001,4,1005,4,1.000000,4.000000,5.000000,4.000000
208178,2026-07-29T19:59:03.483+08:00,248,0.496000,0,1001,4,1002,4,1.000000,4.000000,2.000000,4.000000
208179,2026-07-29T19:59:03.483+08:00,249,0.498000,0,997,4,998,4,-3.000000,4.000000,-2.000000,4.000000
208180,2026-07-29T19:59:03.483+08:00,250,0.500000,0,995,4,996,4,-5.000000,4.000000,-4.000000,4.000000
208181,2026-07-29T19:59:03.483+08:00,251,0.502000,0,1000,4,995,4,0.000000,4.000000,-5.000000,4.000000
208182,2026-07-29T19:59:03.483+08:00,252,0.504000,0,1005,4,997,4,5.000000,4.000000,-3.000000,4.000000
208183,2026-07-29T19:59:03.483+08:00,253,0.506000,0,1004,4,1003,4,4.000000,4.000000,3.000000,4.000000
208184,2026-07-29T19:59:03.483+08:00,254,0.508000,0,997,4,1006,4,-3.000000,4.000000,6.000000,4.000000
208185,2026-07-29T19:59:03.486+08:00,255,0.510000,0,993,4,1002,4,-7.000000,4.000000,2.000000,4.000000
208186,2026-07-29T19:59:03.486+08:00,256,0.512000,0,995,4,996,4,-5.000000,4.000000,-4.000000,4.000000
208187,2026-07-29T19:59:03.486+08:00,257,0.514000,0,1001,4,994,4,1.000000,4.000000,-6.000000,4.000000
208188,2026-07-29T19:59:03.489+08:00,258,0.516000,0,1006,4,998,4,6.000000,4.000000,-2.000000,4.000000
208189,2026-07-29T19:59:03.489+08:00,259,0.518000,0,1004,4,1004,4,4.000000,4.000000,4.000000,4.000000
208190,2026-07-29T19:59:03.489+08:00,260,0.520000,0,998,4,1003,4,-2.000000,4.000000,3.000000,4.000000
208191,2026-07-29T19:59:03.492+08:00,261,0.522000,0,994,4,998,4,-6.000000,4.000000,-2.000000,4.000000
208192,2026-07-29T19:59:03.492+08:00,262,0.524000,0,996,4,996,4,-4.000000,4.000000,-4.000000,4.000000
208193,2026-07-29T19:59:03.505+08:00,263,0.526000,0,1001,4,1000,4,1.000000,4.000000,0.000000,4.000000
208194,2026-07-29T19:59:03.505+08:00,264,0.528000,0,1004,4,1004,4,4.000000,4.000000,4.000000,4.000000
208195,2026-07-29T19:59:03.505+08:00,265,0.530000,0,1002,4,1002,4,2.000000,4.000000,2.000000,4.000000
208196,2026-07-29T19:59:03.505+08:00,266,0.532000,0,997,4,995,4,-3.000000,4.000000,-5.000000,4.000000
208197,2026-07-29T19:59:03.505+08:00,267,0.534000,0,997,4,992,4,-3.000000,4.000000,-8.000000,4.000000
208198,2026-07-29T19:59:03.505+08:00,268,0.536000,0,999,4,999,4,-1.000000,4.000000,-1.000000,4.000000
208199,2026-07-29T19:59:03.509+08:00,269,0.538000,0,1001,4,1008,4,1.000000,4.000000,8.000000,4.000000
208200,2026-07-29T19:59:03.521+08:00,270,0.540000,0,1000,4,1008,4,0.000000,4.000000,8.000000,4.000000
208201,2026-07-29T19:59:03.521+08:00,271,0.542000,0,998,4,998,4,-2.000000,4.000000,-2.000000,4.000000
208202,2026-07-29T19:59:03.521+08:00,272,0.544000,0,999,4,990,4,-1.000000,4.000000,-10.000000,4.000000
208203,2026-07-29T19:59:03.521+08:00,273,0.546000,0,1000,4,992,4,0.000000,4.000000,-8.000000,4.000000
208204,2026-07-29T19:59:03.521+08:00,274,0.548000,0,1000,4,1002,4,0.000000,4.000000,2.000000,4.000000
208205,2026-07-29T19:59:03.521+08:00,275,0.550000,0,1000,4,1008,4,0.000000,4.000000,8.000000,4.000000
208206,2026-07-29T19:59:03.522+08:00,276,0.552000,0,1000,4,1005,4,0.000000,4.000000,5.000000,4.000000
208207,2026-07-29T19:59:03.522+08:00,277,0.554000,0,999,4,998,4,-1.000000,4.000000,-2.000000,4.000000
208208,2026-07-29T19:59:03.537+08:00,278,0.556000,0,999,4,994,4,-1.000000,4.000000,-6.000000,4.000000
208209,2026-07-29T19:59:03.537+08:00,279,0.558000,0,999,4,995,4,-1.000000,4.000000,-5.000000,4.000000
208210,2026-07-29T19:59:03.537+08:00,280,0.560000,0,1001,4,999,4,1.000000,4.000000,-1.000000,4.000000
208211,2026-07-29T19:59:03.537+08:00,281,0.562000,0,1000,4,1002,4,0.000000,4.000000,2.000000,4.000000
208212,2026-07-29T19:59:03.537+08:00,282,0.564000,0,999,4,1003,4,-1.000000,4.000000,3.000000,4.000000
208213,2026-07-29T19:59:03.537+08:00,283,0.566000,0,998,4,1002,4,-2.000000,4.000000,2.000000,4.000000
208214,2026-07-29T19:59:03.537+08:00,284,0.568000,0,999,4,1000,4,-1.000000,4.000000,0.000000,4.000000
208215,2026-07-29T19:59:03.559+08:00,285,0.570000,0,1000,4,997,4,0.000000,4.000000,-3.000000,4.000000
208216,2026-07-29T19:59:03.559+08:00,286,0.572000,0,1001,4,995,4,1.000000,4.000000,-5.000000,4.000000
208217,2026-07-29T19:59:03.559+08:00,287,0.574000,0,1001,4,997,4,1.000000,4.000000,-3.000000,4.000000
208218,2026-07-29T19:59:03.559+08:00,288,0.576000,0,999,4,1001,4,-1.000000,4.000000,1.000000,4.000000
208219,2026-07-29T19:59:03.559+08:00,289,0.578000,0,997,4,1004,4,-3.000000,4.000000,4.000000,4.000000
208220,2026-07-29T19:59:03.559+08:00,290,0.580000,0,998,4,1003,4,-2.000000,4.000000,3.000000,4.000000
208221,2026-07-29T19:59:03.559+08:00,291,0.582000,0,1001,4,999,4,1.000000,4.000000,-1.000000,4.000000
208222,2026-07-29T19:59:03.559+08:00,292,0.584000,0,1003,4,996,4,3.000000,4.000000,-4.000000,4.000000
208223,2026-07-29T19:59:03.559+08:00,293,0.586000,0,1000,4,997,4,0.000000,4.000000,-3.000000,4.000000
208224,2026-07-29T19:59:03.562+08:00,294,0.588000,0,995,4,998,4,-5.000000,4.000000,-2.000000,4.000000
208225,2026-07-29T19:59:03.562+08:00,295,0.590000,0,996,4,1000,4,-4.000000,4.000000,0.000000,4.000000
208226,2026-07-29T19:59:03.562+08:00,296,0.592000,0,1003,4,1001,4,3.000000,4.000000,1.000000,4.000000
208227,2026-07-29T19:59:03.566+08:00,297,0.594000,0,1006,4,1002,4,6.000000,4.000000,2.000000,4.000000
208228,2026-07-29T19:59:03.566+08:00,298,0.596000,0,1000,4,1002,4,0.000000,4.000000,2.000000,4.000000
208229,2026-07-29T19:59:03.566+08:00,299,0.598000,0,993,4,999,4,-7.000000,4.000000,-1.000000,4.000000
208230,2026-07-29T19:59:03.574+08:00,300,0.600000,0,994,4,996,4,-6.000000,4.000000,-4.000000,4.000000
208231,2026-07-29T19:59:03.585+08:00,301,0.602000,0,1001,4,996,4,1.000000,4.000000,-4.000000,4.000000
208232,2026-07-29T19:59:03.585+08:00,302,0.604000,0,1005,4,1000,4,5.000000,4.000000,0.000000,4.000000
208233,2026-07-29T19:59:03.585+08:00,303,0.606000,0,1002,4,1003,4,2.000000,4.000000,3.000000,4.000000
208234,2026-07-29T19:59:03.585+08:00,304,0.608000,0,997,4,1002,4,-3.000000,4.000000,2.000000,4.000000
208235,2026-07-29T19:59:03.585+08:00,305,0.610000,0,996,4,1000,4,-4.000000,4.000000,0.000000,4.000000
208236,2026-07-29T19:59:03.585+08:00,306,0.612000,0,998,4,998,4,-2.000000,4.000000,-2.000000,4.000000
208237,2026-07-29T19:59:03.591+08:00,307,0.614000,0,1000,4,997,4,0.000000,4.000000,-3.000000,4.000000
208238,2026-07-29T19:59:03.595+08:00,308,0.616000,0,1000,4,998,4,0.000000,4.000000,-2.000000,4.000000
208239,2026-07-29T19:59:03.595+08:00,309,0.618000,0,1000,4,999,4,0.000000,4.000000,-1.000000,4.000000
208240,2026-07-29T19:59:03.595+08:00,310,0.620000,0,1001,4,1001,4,1.000000,4.000000,1.000000,4.000000
208241,2026-07-29T19:59:03.597+08:00,311,0.622000,0,1001,4,1002,4,1.000000,4.000000,2.000000,4.000000
208242,2026-07-29T19:59:03.597+08:00,312,0.624000,0,999,4,1001,4,-1.000000,4.000000,1.000000,4.000000
208243,2026-07-29T19:59:03.597+08:00,313,0.626000,0,996,4,1000,4,-4.000000,4.000000,0.000000,4.000000
208244,2026-07-29T19:59:03.597+08:00,314,0.628000,0,996,4,998,4,-4.000000,4.000000,-2.000000,4.000000
208245,2026-07-29T19:59:03.631+08:00,315,0.630000,0,1000,4,997,4,0.000000,4.000000,-3.000000,4.000000
208246,2026-07-29T19:59:03.631+08:00,316,0.632000,0,1004,4,998,4,4.000000,4.000000,-2.000000,4.000000
208247,2026-07-29T19:59:03.631+08:00,317,0.634000,0,1004,4,1000,4,4.000000,4.000000,0.000000,4.000000
208248,2026-07-29T19:59:03.631+08:00,318,0.636000,0,999,4,1002,4,-1.000000,4.000000,2.000000,4.000000
208249,2026-07-29T19:59:03.631+08:00,319,0.638000,0,995,4,1002,4,-5.000000,4.000000,2.000000,4.000000
208250,2026-07-29T19:59:03.631+08:00,320,0.640000,0,996,4,1000,4,-4.000000,4.000000,0.000000,4.000000
208251,2026-07-29T19:59:03.633+08:00,321,0.642000,0,1000,4,998,4,0.000000,4.000000,-2.000000,4.000000
208252,2026-07-29T19:59:03.633+08:00,322,0.644000,0,1003,4,998,4,3.000000,4.000000,-2.000000,4.000000
208253,2026-07-29T19:59:03.633+08:00,323,0.646000,0,1002,4,998,4,2.000000,4.000000,-2.000000,4.000000
208254,2026-07-29T19:59:03.633+08:00,324,0.648000,0,1000,4,998,4,0.000000,4.000000,-2.000000,4.000000
208255,2026-07-29T19:59:03.633+08:00,325,0.650000,0,998,4,1000,4,-2.000000,4.000000,0.000000,4.000000
208256,2026-07-29T19:59:03.633+08:00,326,0.652000,0,997,4,1002,4,-3.000000,4.000000,2.000000,4.000000
208257,2026-07-29T19:59:03.633+08:00,327,0.654000,0,997,4,1003,4,-3.000000,4.000000,3.000000,4.000000
208258,2026-07-29T19:59:03.633+08:00,328,0.656000,0,1000,4,999,4,0.000000,4.000000,-1.000000,4.000000
208259,2026-07-29T19:59:03.633+08:00,329,0.658000,0,1003,4,995,4,3.000000,4.000000,-5.000000,4.000000
208260,2026-07-29T19:59:03.637+08:00,330,0.660000,0,1003,4,996,4,3.000000,4.000000,-4.000000,4.000000
208261,2026-07-29T19:59:03.637+08:00,331,0.662000,0,999,4,1000,4,-1.000000,4.000000,0.000000,4.000000
208262,2026-07-29T19:59:03.637+08:00,332,0.664000,0,996,4,1003,4,-4.000000,4.000000,3.000000,4.000000
208263,2026-07-29T19:59:03.640+08:00,333,0.666000,0,997,4,1001,4,-3.000000,4.000000,1.000000,4.000000
208264,2026-07-29T19:59:03.640+08:00,334,0.668000,0,1001,4,999,4,1.000000,4.000000,-1.000000,4.000000
208265,2026-07-29T19:59:03.640+08:00,335,0.670000,0,1002,4,999,4,2.000000,4.000000,-1.000000,4.000000
208266,2026-07-29T19:59:03.643+08:00,336,0.672000,0,1000,4,1000,4,0.000000,4.000000,0.000000,4.000000
208267,2026-07-29T19:59:03.643+08:00,337,0.674000,0,998,4,998,4,-2.000000,4.000000,-2.000000,4.000000
208268,2026-07-29T19:59:03.657+08:00,338,0.676000,0,999,4,997,4,-1.000000,4.000000,-3.000000,4.000000
208269,2026-07-29T19:59:03.657+08:00,339,0.678000,0,1000,4,999,4,0.000000,4.000000,-1.000000,4.000000
208270,2026-07-29T19:59:03.657+08:00,340,0.680000,0,1001,4,1003,4,1.000000,4.000000,3.000000,4.000000
208271,2026-07-29T19:59:03.657+08:00,341,0.682000,0,1001,4,1003,4,1.000000,4.000000,3.000000,4.000000
208272,2026-07-29T19:59:03.657+08:00,342,0.684000,0,998,4,1000,4,-2.000000,4.000000,0.000000,4.000000
208273,2026-07-29T19:59:03.657+08:00,343,0.686000,0,996,4,997,4,-4.000000,4.000000,-3.000000,4.000000
208274,2026-07-29T19:59:03.657+08:00,344,0.688000,0,997,4,996,4,-3.000000,4.000000,-4.000000,4.000000
208275,2026-07-29T19:59:03.670+08:00,345,0.690000,0,1002,4,998,4,2.000000,4.000000,-2.000000,4.000000
208276,2026-07-29T19:59:03.686+08:00,346,0.692000,0,1005,4,1001,4,5.000000,4.000000,1.000000,4.000000
208277,2026-07-29T19:59:03.686+08:00,347,0.694000,0,1002,4,1003,4,2.000000,4.000000,3.000000,4.000000
208278,2026-07-29T19:59:03.686+08:00,348,0.696000,0,995,4,1002,4,-5.000000,4.000000,2.000000,4.000000
208279,2026-07-29T19:59:03.686+08:00,349,0.698000,0,993,4,1000,4,-7.000000,4.000000,0.000000,4.000000
208280,2026-07-29T19:59:03.686+08:00,350,0.700000,0,998,4,997,4,-2.000000,4.000000,-3.000000,4.000000
208281,2026-07-29T19:59:03.686+08:00,351,0.702000,0,1004,4,995,4,4.000000,4.000000,-5.000000,4.000000
208282,2026-07-29T19:59:03.686+08:00,352,0.704000,0,1003,4,998,4,3.000000,4.000000,-2.000000,4.000000
208283,2026-07-29T19:59:03.686+08:00,353,0.706000,0,999,4,1002,4,-1.000000,4.000000,2.000000,4.000000
208284,2026-07-29T19:59:03.686+08:00,354,0.708000,0,997,4,1004,4,-3.000000,4.000000,4.000000,4.000000
208285,2026-07-29T19:59:03.686+08:00,355,0.710000,0,999,4,1001,4,-1.000000,4.000000,1.000000,4.000000
208286,2026-07-29T19:59:03.686+08:00,356,0.712000,0,1002,4,997,4,2.000000,4.000000,-3.000000,4.000000
208287,2026-07-29T19:59:03.686+08:00,357,0.714000,0,1000,4,997,4,0.000000,4.000000,-3.000000,4.000000
208288,2026-07-29T19:59:03.686+08:00,358,0.716000,0,997,4,1000,4,-3.000000,4.000000,0.000000,4.000000
208289,2026-07-29T19:59:03.703+08:00,359,0.718000,0,997,4,1001,4,-3.000000,4.000000,1.000000,4.000000
208290,2026-07-29T19:59:03.703+08:00,360,0.720000,0,1001,4,999,4,1.000000,4.000000,-1.000000,4.000000
208291,2026-07-29T19:59:03.703+08:00,361,0.722000,0,1004,4,998,4,4.000000,4.000000,-2.000000,4.000000
208292,2026-07-29T19:59:03.703+08:00,362,0.724000,0,1003,4,1000,4,3.000000,4.000000,0.000000,4.000000
208293,2026-07-29T19:59:03.703+08:00,363,0.726000,0,998,4,1002,4,-2.000000,4.000000,2.000000,4.000000
208294,2026-07-29T19:59:03.703+08:00,364,0.728000,0,994,4,1001,4,-6.000000,4.000000,1.000000,4.000000
208295,2026-07-29T19:59:03.703+08:00,365,0.730000,0,996,4,998,4,-4.000000,4.000000,-2.000000,4.000000
208296,2026-07-29T19:59:03.703+08:00,366,0.732000,0,1001,2,997,4,1.000000,2.000000,-3.000000,4.000000
208297,2026-07-29T19:59:03.703+08:00,367,0.734000,0,1005,2,998,4,5.000000,2.000000,-2.000000,4.000000
208298,2026-07-29T19:59:03.710+08:00,368,0.736000,0,1003,2,1000,4,3.000000,2.000000,0.000000,4.000000
208299,2026-07-29T19:59:03.713+08:00,369,0.738000,0,999,2,1002,4,-1.000000,2.000000,2.000000,4.000000
208300,2026-07-29T19:59:03.713+08:00,370,0.740000,0,995,2,1002,4,-5.000000,2.000000,2.000000,4.000000
208301,2026-07-29T19:59:03.713+08:00,371,0.742000,0,996,2,1000,4,-4.000000,2.000000,0.000000,4.000000
208302,2026-07-29T19:59:03.719+08:00,372,0.744000,0,1000,2,997,4,0.000000,2.000000,-3.000000,4.000000
208303,2026-07-29T19:59:03.719+08:00,373,0.746000,0,1002,2,996,4,2.000000,2.000000,-4.000000,4.000000
208304,2026-07-29T19:59:03.719+08:00,374,0.748000,0,1002,2,997,4,2.000000,2.000000,-3.000000,4.000000
208305,2026-07-29T19:59:03.726+08:00,375,0.750000,0,1000,2,1001,4,0.000000,2.000000,1.000000,4.000000
208306,2026-07-29T19:59:03.732+08:00,376,0.752000,0,999,2,1004,4,-1.000000,2.000000,4.000000,4.000000
208307,2026-07-29T19:59:03.732+08:00,377,0.754000,0,999,2,1003,4,-1.000000,2.000000,3.000000,4.000000
208308,2026-07-29T19:59:03.732+08:00,378,0.756000,0,998,2,999,4,-2.000000,2.000000,-1.000000,4.000000
208309,2026-07-29T19:59:03.732+08:00,379,0.758000,0,999,2,995,4,-1.000000,2.000000,-5.000000,4.000000
208310,2026-07-29T19:59:03.732+08:00,380,0.760000,0,1000,2,995,4,0.000000,2.000000,-5.000000,4.000000
208311,2026-07-29T19:59:03.732+08:00,381,0.762000,0,1001,2,999,4,1.000000,2.000000,-1.000000,4.000000
208312,2026-07-29T19:59:03.733+08:00,382,0.764000,0,1000,2,1003,4,0.000000,2.000000,3.000000,4.000000
208313,2026-07-29T19:59:03.744+08:00,383,0.766000,0,999,2,1003,4,-1.000000,2.000000,3.000000,4.000000
208314,2026-07-29T19:59:03.744+08:00,384,0.768000,0,1001,2,1000,2,1.000000,2.000000,0.000000,2.000000
208315,2026-07-29T19:59:03.744+08:00,385,0.770000,0,1001,2,999,2,1.000000,2.000000,-1.000000,2.000000
208316,2026-07-29T19:59:03.778+08:00,386,0.772000,0,998,2,998,2,-2.000000,2.000000,-2.000000,2.000000
208317,2026-07-29T19:59:03.778+08:00,387,0.774000,0,996,2,996,2,-4.000000,2.000000,-4.000000,2.000000
208318,2026-07-29T19:59:03.778+08:00,388,0.776000,0,999,2,996,2,-1.000000,2.000000,-4.000000,2.000000
208319,2026-07-29T19:59:03.778+08:00,389,0.778000,0,1003,2,1000,2,3.000000,2.000000,0.000000,2.000000
208320,2026-07-29T19:59:03.778+08:00,390,0.780000,0,1003,2,1006,2,3.000000,2.000000,6.000000,2.000000
208321,2026-07-29T19:59:03.778+08:00,391,0.782000,0,999,2,1006,4,-1.000000,2.000000,6.000000,4.000000
208322,2026-07-29T19:59:03.778+08:00,392,0.784000,0,996,2,999,2,-4.000000,2.000000,-1.000000,2.000000
208323,2026-07-29T19:59:03.778+08:00,393,0.786000,0,998,2,992,4,-2.000000,2.000000,-8.000000,4.000000
208324,2026-07-29T19:59:03.778+08:00,394,0.788000,0,1000,2,993,4,0.000000,2.000000,-7.000000,4.000000
208325,2026-07-29T19:59:03.778+08:00,395,0.790000,0,999,2,1000,2,-1.000000,2.000000,0.000000,2.000000
208326,2026-07-29T19:59:03.778+08:00,396,0.792000,0,999,2,1005,4,-1.000000,2.000000,5.000000,4.000000
208327,2026-07-29T19:59:03.778+08:00,397,0.794000,0,1001,2,1004,2,1.000000,2.000000,4.000000,2.000000
208328,2026-07-29T19:59:03.778+08:00,398,0.796000,0,1002,2,1001,2,2.000000,2.000000,1.000000,2.000000
208329,2026-07-29T19:59:03.778+08:00,399,0.798000,0,998,2,998,2,-2.000000,2.000000,-2.000000,2.000000
208330,2026-07-29T19:59:03.778+08:00,400,0.800000,0,996,2,996,2,-4.000000,2.000000,-4.000000,2.000000
208331,2026-07-29T19:59:03.778+08:00,401,0.802000,0,998,2,996,2,-2.000000,2.000000,-4.000000,2.000000
208332,2026-07-29T19:59:03.778+08:00,402,0.804000,0,1003,2,1000,2,3.000000,2.000000,0.000000,2.000000
208333,2026-07-29T19:59:03.778+08:00,403,0.806000,0,1003,2,1002,2,3.000000,2.000000,2.000000,2.000000
208334,2026-07-29T19:59:03.778+08:00,404,0.808000,0,998,2,1002,2,-2.000000,2.000000,2.000000,2.000000
208335,2026-07-29T19:59:03.787+08:00,405,0.810000,0,995,2,1000,2,-5.000000,2.000000,0.000000,2.000000
208336,2026-07-29T19:59:03.787+08:00,406,0.812000,0,998,2,998,2,-2.000000,2.000000,-2.000000,2.000000
208337,2026-07-29T19:59:03.787+08:00,407,0.814000,0,1003,2,997,2,3.000000,2.000000,-3.000000,2.000000
208338,2026-07-29T19:59:03.789+08:00,408,0.816000,0,1002,2,999,2,2.000000,2.000000,-1.000000,2.000000
208339,2026-07-29T19:59:03.789+08:00,409,0.818000,0,999,2,1000,2,-1.000000,2.000000,0.000000,2.000000
208340,2026-07-29T19:59:03.789+08:00,410,0.820000,0,997,2,1001,2,-3.000000,2.000000,1.000000,2.000000
208341,2026-07-29T19:59:03.793+08:00,411,0.822000,0,999,2,1000,2,-1.000000,2.000000,0.000000,2.000000
208342,2026-07-29T19:59:03.793+08:00,412,0.824000,0,1001,2,999,2,1.000000,2.000000,-1.000000,2.000000
208343,2026-07-29T19:59:03.800+08:00,413,0.826000,0,1001,2,999,2,1.000000,2.000000,-1.000000,2.000000
208344,2026-07-29T19:59:03.804+08:00,414,0.828000,0,999,2,1000,2,-1.000000,2.000000,0.000000,2.000000
208345,2026-07-29T19:59:03.804+08:00,415,0.830000,0,997,2,1000,2,-3.000000,2.000000,0.000000,2.000000
208346,2026-07-29T19:59:03.804+08:00,416,0.832000,0,999,2,998,2,-1.000000,2.000000,-2.000000,2.000000
208347,2026-07-29T19:59:03.810+08:00,417,0.834000,0,1002,2,998,2,2.000000,2.000000,-2.000000,2.000000
208348,2026-07-29T19:59:03.810+08:00,418,0.836000,0,1003,2,1000,2,3.000000,2.000000,0.000000,2.000000
208349,2026-07-29T19:59:03.810+08:00,419,0.838000,0,1000,2,1002,2,0.000000,2.000000,2.000000,2.000000
208350,2026-07-29T19:59:03.843+08:00,420,0.840000,0,996,2,1002,2,-4.000000,2.000000,2.000000,2.000000
208351,2026-07-29T19:59:03.843+08:00,421,0.842000,0,995,2,999,2,-5.000000,2.000000,-1.000000,2.000000
208352,2026-07-29T19:59:03.843+08:00,422,0.844000,0,1000,2,997,2,0.000000,2.000000,-3.000000,2.000000
208353,2026-07-29T19:59:03.843+08:00,423,0.846000,0,1004,2,996,2,4.000000,2.000000,-4.000000,2.000000
208354,2026-07-29T19:59:03.843+08:00,424,0.848000,0,1004,2,999,2,4.000000,2.000000,-1.000000,2.000000
208355,2026-07-29T19:59:03.843+08:00,425,0.850000,0,999,2,1001,2,-1.000000,2.000000,1.000000,2.000000
208356,2026-07-29T19:59:03.843+08:00,426,0.852000,0,995,2,1003,2,-5.000000,2.000000,3.000000,2.000000
208357,2026-07-29T19:59:03.843+08:00,427,0.854000,0,995,2,1003,2,-5.000000,2.000000,3.000000,2.000000
208358,2026-07-29T19:59:03.843+08:00,428,0.856000,0,1001,2,1000,2,1.000000,2.000000,0.000000,2.000000
208359,2026-07-29T19:59:03.843+08:00,429,0.858000,0,1004,2,995,2,4.000000,2.000000,-5.000000,2.000000
208360,2026-07-29T19:59:03.843+08:00,430,0.860000,0,1001,2,994,2,1.000000,2.000000,-6.000000,2.000000
208361,2026-07-29T19:59:03.843+08:00,431,0.862000,0,997,2,999,2,-3.000000,2.000000,-1.000000,2.000000
208362,2026-07-29T19:59:03.843+08:00,432,0.864000,0,998,2,1005,2,-2.000000,2.000000,5.000000,2.000000
208363,2026-07-29T19:59:03.843+08:00,433,0.866000,0,1001,2,1005,2,1.000000,2.000000,5.000000,2.000000
208364,2026-07-29T19:59:03.843+08:00,434,0.868000,0,1001,2,999,2,1.000000,2.000000,-1.000000,2.000000
208365,2026-07-29T19:59:03.848+08:00,435,0.870000,0,997,2,995,2,-3.000000,2.000000,-5.000000,2.000000
208366,2026-07-29T19:59:03.848+08:00,436,0.872000,0,996,2,997,2,-4.000000,2.000000,-3.000000,2.000000
208367,2026-07-29T19:59:03.848+08:00,437,0.874000,0,1000,2,1001,2,0.000000,2.000000,1.000000,2.000000
208368,2026-07-29T19:59:03.850+08:00,438,0.876000,0,1005,2,1001,2,5.000000,2.000000,1.000000,2.000000
208369,2026-07-29T19:59:03.850+08:00,439,0.878000,0,1003,2,998,2,3.000000,2.000000,-2.000000,2.000000
208370,2026-07-29T19:59:03.850+08:00,440,0.880000,0,996,2,999,2,-4.000000,2.000000,-1.000000,2.000000
208371,2026-07-29T19:59:03.853+08:00,441,0.882000,0,993,2,1003,2,-7.000000,2.000000,3.000000,2.000000
208372,2026-07-29T19:59:03.853+08:00,442,0.884000,0,997,2,1004,2,-3.000000,2.000000,4.000000,2.000000
208373,2026-07-29T19:59:03.868+08:00,443,0.886000,0,1003,2,998,2,3.000000,2.000000,-2.000000,2.000000
208374,2026-07-29T19:59:03.868+08:00,444,0.888000,0,1005,2,993,2,5.000000,2.000000,-7.000000,2.000000
208375,2026-07-29T19:59:03.868+08:00,445,0.890000,0,1002,2,996,2,2.000000,2.000000,-4.000000,2.000000
208376,2026-07-29T19:59:03.868+08:00,446,0.892000,0,997,2,1003,2,-3.000000,2.000000,3.000000,2.000000
208377,2026-07-29T19:59:03.868+08:00,447,0.894000,0,995,2,1006,2,-5.000000,2.000000,6.000000,2.000000
208378,2026-07-29T19:59:03.868+08:00,448,0.896000,0,997,2,1002,2,-3.000000,2.000000,2.000000,2.000000
208379,2026-07-29T19:59:03.868+08:00,449,0.898000,0,1001,2,997,2,1.000000,2.000000,-3.000000,2.000000
208380,2026-07-29T19:59:03.880+08:00,450,0.900000,0,1003,2,996,2,3.000000,2.000000,-4.000000,2.000000
208381,2026-07-29T19:59:03.880+08:00,451,0.902000,0,1002,2,997,2,2.000000,2.000000,-3.000000,2.000000
208382,2026-07-29T19:59:03.880+08:00,452,0.904000,0,1000,2,998,2,0.000000,2.000000,-2.000000,2.000000
208383,2026-07-29T19:59:03.880+08:00,453,0.906000,0,998,2,1002,2,-2.000000,2.000000,2.000000,2.000000
208384,2026-07-29T19:59:03.880+08:00,454,0.908000,0,997,2,1004,2,-3.000000,2.000000,4.000000,2.000000
208385,2026-07-29T19:59:03.919+08:00,455,0.910000,0,998,2,1003,2,-2.000000,2.000000,3.000000,2.000000
208386,2026-07-29T19:59:03.919+08:00,456,0.912000,0,999,2,997,2,-1.000000,2.000000,-3.000000,2.000000
208387,2026-07-29T19:59:03.919+08:00,457,0.914000,0,1002,2,994,2,2.000000,2.000000,-6.000000,2.000000
208388,2026-07-29T19:59:03.919+08:00,458,0.916000,0,1003,2,996,2,3.000000,2.000000,-4.000000,2.000000
208389,2026-07-29T19:59:03.919+08:00,459,0.918000,0,1001,2,1002,2,1.000000,2.000000,2.000000,2.000000
208390,2026-07-29T19:59:03.919+08:00,460,0.920000,0,997,2,1004,2,-3.000000,2.000000,4.000000,2.000000
208391,2026-07-29T19:59:03.919+08:00,461,0.922000,0,996,2,1002,2,-4.000000,2.000000,2.000000,2.000000
208392,2026-07-29T19:59:03.919+08:00,462,0.924000,0,998,2,998,2,-2.000000,2.000000,-2.000000,2.000000
208393,2026-07-29T19:59:03.919+08:00,463,0.926000,0,1001,2,996,2,1.000000,2.000000,-4.000000,2.000000
208394,2026-07-29T19:59:03.919+08:00,464,0.928000,0,1003,2,999,2,3.000000,2.000000,-1.000000,2.000000
208395,2026-07-29T19:59:03.919+08:00,465,0.930000,0,1002,2,1001,2,2.000000,2.000000,1.000000,2.000000
208396,2026-07-29T19:59:03.919+08:00,466,0.932000,0,999,2,1001,2,-1.000000,2.000000,1.000000,2.000000
208397,2026-07-29T19:59:03.919+08:00,467,0.934000,0,997,2,998,2,-3.000000,2.000000,-2.000000,2.000000
208398,2026-07-29T19:59:03.919+08:00,468,0.936000,0,998,2,998,2,-2.000000,2.000000,-2.000000,2.000000
208399,2026-07-29T19:59:03.919+08:00,469,0.938000,0,1000,2,1001,2,0.000000,2.000000,1.000000,2.000000
208400,2026-07-29T19:59:03.919+08:00,470,0.940000,0,1000,2,1003,2,0.000000,2.000000,3.000000,2.000000
208401,2026-07-29T19:59:03.919+08:00,471,0.942000,0,999,2,1000,2,-1.000000,2.000000,0.000000,2.000000
208402,2026-07-29T19:59:03.919+08:00,472,0.944000,0,1000,2,996,2,0.000000,2.000000,-4.000000,2.000000
208403,2026-07-29T19:59:03.921+08:00,473,0.946000,0,1001,2,995,2,1.000000,2.000000,-5.000000,2.000000
208404,2026-07-29T19:59:03.921+08:00,474,0.948000,0,999,2,999,2,-1.000000,2.000000,-1.000000,2.000000
208405,2026-07-29T19:59:03.921+08:00,475,0.950000,0,998,2,1004,2,-2.000000,2.000000,4.000000,2.000000
208406,2026-07-29T19:59:03.925+08:00,476,0.952000,0,999,2,1004,2,-1.000000,2.000000,4.000000,2.000000
208407,2026-07-29T19:59:03.925+08:00,477,0.954000,0,1001,2,1000,2,1.000000,2.000000,0.000000,2.000000
208408,2026-07-29T19:59:03.925+08:00,478,0.956000,0,1001,2,995,2,1.000000,2.000000,-5.000000,2.000000
208409,2026-07-29T19:59:03.926+08:00,479,0.958000,0,998,2,995,2,-2.000000,2.000000,-5.000000,2.000000
208410,2026-07-29T19:59:03.937+08:00,480,0.960000,0,997,2,999,2,-3.000000,2.000000,-1.000000,2.000000
208411,2026-07-29T19:59:03.937+08:00,481,0.962000,0,1000,2,1004,4,0.000000,2.000000,4.000000,4.000000
208412,2026-07-29T19:59:03.937+08:00,482,0.964000,0,1003,2,1003,2,3.000000,2.000000,3.000000,2.000000
208413,2026-07-29T19:59:03.950+08:00,483,0.966000,0,1000,2,999,2,0.000000,2.000000,-1.000000,2.000000
208414,2026-07-29T19:59:03.950+08:00,484,0.968000,0,997,2,996,2,-3.000000,2.000000,-4.000000,2.000000
208415,2026-07-29T19:59:03.950+08:00,485,0.970000,0,997,2,997,2,-3.000000,2.000000,-3.000000,2.000000
208416,2026-07-29T19:59:03.950+08:00,486,0.972000,0,1000,2,1001,4,0.000000,2.000000,1.000000,4.000000
208417,2026-07-29T19:59:03.950+08:00,487,0.974000,0,1001,2,1002,4,1.000000,2.000000,2.000000,4.000000
208418,2026-07-29T19:59:03.951+08:00,488,0.976000,0,1001,2,1000,4,1.000000,2.000000,0.000000,4.000000
208419,2026-07-29T19:59:03.962+08:00,489,0.978000,0,1001,2,998,4,1.000000,2.000000,-2.000000,4.000000
208420,2026-07-29T19:59:03.962+08:00,490,0.980000,0,999,2,998,4,-1.000000,2.000000,-2.000000,4.000000
208421,2026-07-29T19:59:03.962+08:00,491,0.982000,0,996,2,999,4,-4.000000,2.000000,-1.000000,4.000000
208422,2026-07-29T19:59:03.962+08:00,492,0.984000,0,995,2,1001,4,-5.000000,2.000000,1.000000,4.000000
208423,2026-07-29T19:59:03.962+08:00,493,0.986000,0,1000,2,1001,4,0.000000,2.000000,1.000000,4.000000
208424,2026-07-29T19:59:03.962+08:00,494,0.988000,0,1006,2,1001,2,6.000000,2.000000,1.000000,2.000000
208425,2026-07-29T19:59:03.975+08:00,495,0.990000,0,1005,2,999,2,5.000000,2.000000,-1.000000,2.000000
208426,2026-07-29T19:59:03.975+08:00,496,0.992000,0,998,2,996,4,-2.000000,2.000000,-4.000000,4.000000
208427,2026-07-29T19:59:03.975+08:00,497,0.994000,0,992,2,996,4,-8.000000,2.000000,-4.000000,4.000000
208428,2026-07-29T19:59:03.975+08:00,498,0.996000,0,995,2,1000,4,-5.000000,2.000000,0.000000,4.000000
208429,2026-07-29T19:59:03.975+08:00,499,0.998000,0,1003,2,1006,4,3.000000,2.000000,6.000000,4.000000
208430,2026-07-29T19:59:03.975+08:00,500,1.000000,0,1005,2,1004,4,5.000000,2.000000,4.000000,4.000000
208431,2026-07-29T19:59:03.975+08:00,501,1.002000,0,1002,2,996,4,2.000000,2.000000,-4.000000,4.000000
208432,2026-07-29T19:59:03.975+08:00,502,1.004000,0,997,2,992,4,-3.000000,2.000000,-8.000000,4.000000
208433,2026-07-29T19:59:03.990+08:00,503,1.006000,0,996,2,997,4,-4.000000,2.000000,-3.000000,4.000000
208434,2026-07-29T19:59:03.990+08:00,504,1.008000,0,999,2,1005,4,-1.000000,2.000000,5.000000,4.000000
208435,2026-07-29T19:59:03.990+08:00,505,1.010000,0,1000,2,1006,4,0.000000,2.000000,6.000000,4.000000
208436,2026-07-29T19:59:03.990+08:00,506,1.012000,0,999,2,1001,4,-1.000000,2.000000,1.000000,4.000000
208437,2026-07-29T19:59:03.990+08:00,507,1.014000,0,1001,2,995,4,1.000000,2.000000,-5.000000,4.000000
208438,2026-07-29T19:59:03.990+08:00,508,1.016000,0,1003,2,995,4,3.000000,2.000000,-5.000000,4.000000
208439,2026-07-29T19:59:03.990+08:00,509,1.018000,0,1002,2,998,4,2.000000,2.000000,-2.000000,4.000000
208440,2026-07-29T19:59:03.997+08:00,510,1.020000,0,997,2,1001,4,-3.000000,2.000000,1.000000,4.000000
208441,2026-07-29T19:59:03.997+08:00,511,1.022000,0,994,2,1002,4,-6.000000,2.000000,2.000000,4.000000
208442,2026-07-29T19:59:03.997+08:00,512,1.024000,0,997,2,1002,4,-3.000000,2.000000,2.000000,4.000000
208443,2026-07-29T19:59:04.000+08:00,513,1.026000,0,1004,2,1001,4,4.000000,2.000000,1.000000,4.000000
208444,2026-07-29T19:59:04.000+08:00,514,1.028000,0,1005,2,998,4,5.000000,2.000000,-2.000000,4.000000
208445,2026-07-29T19:59:04.000+08:00,515,1.030000,0,1000,2,995,4,0.000000,2.000000,-5.000000,4.000000
208446,2026-07-29T19:59:04.002+08:00,516,1.032000,0,994,2,996,4,-6.000000,2.000000,-4.000000,4.000000
208447,2026-07-29T19:59:04.002+08:00,517,1.034000,0,996,2,1001,4,-4.000000,2.000000,1.000000,4.000000
208448,2026-07-29T19:59:04.013+08:00,518,1.036000,0,1002,2,1005,4,2.000000,2.000000,5.000000,4.000000
208449,2026-07-29T19:59:04.013+08:00,519,1.038000,0,1004,2,1003,4,4.000000,2.000000,3.000000,4.000000
208450,2026-07-29T19:59:04.013+08:00,520,1.040000,0,999,2,997,4,-1.000000,2.000000,-3.000000,4.000000
208451,2026-07-29T19:59:04.023+08:00,521,1.042000,0,996,2,996,4,-4.000000,2.000000,-4.000000,4.000000
208452,2026-07-29T19:59:04.023+08:00,522,1.044000,0,998,2,999,4,-2.000000,2.000000,-1.000000,4.000000
208453,2026-07-29T19:59:04.023+08:00,523,1.046000,0,1002,2,1000,4,2.000000,2.000000,0.000000,4.000000
208454,2026-07-29T19:59:04.023+08:00,524,1.048000,0,1002,2,999,4,2.000000,2.000000,-1.000000,4.000000
208455,2026-07-29T19:59:04.029+08:00,525,1.050000,0,999,2,998,4,-1.000000,2.000000,-2.000000,4.000000
208456,2026-07-29T19:59:04.029+08:00,526,1.052000,0,997,2,1002,4,-3.000000,2.000000,2.000000,4.000000
208457,2026-07-29T19:59:04.029+08:00,527,1.054000,0,997,2,1005,4,-3.000000,2.000000,5.000000,4.000000
208458,2026-07-29T19:59:04.029+08:00,528,1.056000,0,998,2,1000,4,-2.000000,2.000000,0.000000,4.000000
208459,2026-07-29T19:59:04.029+08:00,529,1.058000,0,1001,2,993,4,1.000000,2.000000,-7.000000,4.000000
208460,2026-07-29T19:59:04.040+08:00,530,1.060000,0,1003,2,993,4,3.000000,2.000000,-7.000000,4.000000
208461,2026-07-29T19:59:04.040+08:00,531,1.062000,0,1003,2,1001,4,3.000000,2.000000,1.000000,4.000000
208462,2026-07-29T19:59:04.040+08:00,532,1.064000,0,998,2,1007,4,-2.000000,2.000000,7.000000,4.000000
208463,2026-07-29T19:59:04.058+08:00,533,1.066000,0,995,2,1003,4,-5.000000,2.000000,3.000000,4.000000
208464,2026-07-29T19:59:04.058+08:00,534,1.068000,0,996,2,997,4,-4.000000,2.000000,-3.000000,4.000000
208465,2026-07-29T19:59:04.058+08:00,535,1.070000,0,1001,2,995,4,1.000000,2.000000,-5.000000,4.000000
208466,2026-07-29T19:59:04.058+08:00,536,1.072000,0,1004,2,998,4,4.000000,2.000000,-2.000000,4.000000
208467,2026-07-29T19:59:04.058+08:00,537,1.074000,0,1002,2,999,4,2.000000,2.000000,-1.000000,4.000000
208468,2026-07-29T19:59:04.058+08:00,538,1.076000,0,998,2,1000,4,-2.000000,2.000000,0.000000,4.000000
208469,2026-07-29T19:59:04.058+08:00,539,1.078000,0,997,2,1002,4,-3.000000,2.000000,2.000000,4.000000
208470,2026-07-29T19:59:04.058+08:00,540,1.080000,0,998,2,1002,4,-2.000000,2.000000,2.000000,4.000000
208471,2026-07-29T19:59:04.058+08:00,541,1.082000,0,1000,2,1000,4,0.000000,2.000000,0.000000,4.000000
208472,2026-07-29T19:59:04.058+08:00,542,1.084000,0,1001,2,997,4,1.000000,2.000000,-3.000000,4.000000
208473,2026-07-29T19:59:04.059+08:00,543,1.086000,0,1000,2,996,4,0.000000,2.000000,-4.000000,4.000000
208474,2026-07-29T19:59:04.059+08:00,544,1.088000,0,998,2,998,4,-2.000000,2.000000,-2.000000,4.000000
208475,2026-07-29T19:59:04.059+08:00,545,1.090000,0,999,2,1001,4,-1.000000,2.000000,1.000000,4.000000
208476,2026-07-29T19:59:04.062+08:00,546,1.092000,0,1002,2,1002,4,2.000000,2.000000,2.000000,4.000000
208477,2026-07-29T19:59:04.062+08:00,547,1.094000,0,1003,2,1001,4,3.000000,2.000000,1.000000,4.000000
208478,2026-07-29T19:59:04.070+08:00,548,1.096000,0,999,2,999,4,-1.000000,2.000000,-1.000000,4.000000
208479,2026-07-29T19:59:04.073+08:00,549,1.098000,0,994,2,997,4,-6.000000,2.000000,-3.000000,4.000000
208480,2026-07-29T19:59:04.073+08:00,550,1.100000,0,995,2,998,4,-5.000000,2.000000,-2.000000,4.000000
208481,2026-07-29T19:59:04.073+08:00,551,1.102000,0,1001,2,1000,4,1.000000,2.000000,0.000000,4.000000
208482,2026-07-29T19:59:04.090+08:00,552,1.104000,0,1006,2,1000,4,6.000000,2.000000,0.000000,4.000000
208483,2026-07-29T19:59:04.090+08:00,553,1.106000,0,1004,4,999,4,4.000000,4.000000,-1.000000,4.000000
208484,2026-07-29T19:59:04.090+08:00,554,1.108000,0,998,2,1000,4,-2.000000,2.000000,0.000000,4.000000
208485,2026-07-29T19:59:04.090+08:00,555,1.110000,0,993,4,1002,4,-7.000000,4.000000,2.000000,4.000000
208486,2026-07-29T19:59:04.090+08:00,556,1.112000,0,994,4,1002,4,-6.000000,4.000000,2.000000,4.000000
208487,2026-07-29T19:59:04.090+08:00,557,1.114000,0,1000,4,997,4,0.000000,4.000000,-3.000000,4.000000
208488,2026-07-29T19:59:04.090+08:00,558,1.116000,0,1006,4,994,4,6.000000,4.000000,-6.000000,4.000000
208489,2026-07-29T19:59:04.090+08:00,559,1.118000,0,1006,4,996,4,6.000000,4.000000,-4.000000,4.000000
208490,2026-07-29T19:59:04.090+08:00,560,1.120000,0,999,4,1004,4,-1.000000,4.000000,4.000000,4.000000
208491,2026-07-29T19:59:04.098+08:00,561,1.122000,0,993,4,1007,4,-7.000000,4.000000,7.000000,4.000000
208492,2026-07-29T19:59:04.098+08:00,562,1.124000,0,994,4,1003,4,-6.000000,4.000000,3.000000,4.000000
208493,2026-07-29T19:59:04.111+08:00,563,1.126000,0,999,4,995,4,-1.000000,4.000000,-5.000000,4.000000
208494,2026-07-29T19:59:04.111+08:00,564,1.128000,0,1004,4,992,4,4.000000,4.000000,-8.000000,4.000000
208495,2026-07-29T19:59:04.111+08:00,565,1.130000,0,1004,4,997,4,4.000000,4.000000,-3.000000,4.000000
208496,2026-07-29T19:59:04.111+08:00,566,1.132000,0,1001,4,1004,4,1.000000,4.000000,4.000000,4.000000
208497,2026-07-29T19:59:04.111+08:00,567,1.134000,0,998,4,1006,4,-2.000000,4.000000,6.000000,4.000000
208498,2026-07-29T19:59:04.111+08:00,568,1.136000,0,996,4,1001,4,-4.000000,4.000000,1.000000,4.000000
208499,2026-07-29T19:59:04.111+08:00,569,1.138000,0,997,4,997,4,-3.000000,4.000000,-3.000000,4.000000
208500,2026-07-29T19:59:04.134+08:00,570,1.140000,0,1000,4,997,4,0.000000,4.000000,-3.000000,4.000000
208501,2026-07-29T19:59:04.134+08:00,571,1.142000,0,1002,4,999,4,2.000000,4.000000,-1.000000,4.000000
208502,2026-07-29T19:59:04.134+08:00,572,1.144000,0,1000,4,1000,4,0.000000,4.000000,0.000000,4.000000
208503,2026-07-29T19:59:04.134+08:00,573,1.146000,0,998,4,999,4,-2.000000,4.000000,-1.000000,4.000000
208504,2026-07-29T19:59:04.134+08:00,574,1.148000,0,1000,4,1000,4,0.000000,4.000000,0.000000,4.000000
208505,2026-07-29T19:59:04.134+08:00,575,1.150000,0,1002,2,1002,4,2.000000,2.000000,2.000000,4.000000
208506,2026-07-29T19:59:04.134+08:00,576,1.152000,0,1000,2,1002,4,0.000000,2.000000,2.000000,4.000000
208507,2026-07-29T19:59:04.134+08:00,577,1.154000,0,995,2,998,4,-5.000000,2.000000,-2.000000,4.000000
208508,2026-07-29T19:59:04.134+08:00,578,1.156000,0,995,4,995,4,-5.000000,4.000000,-5.000000,4.000000
208509,2026-07-29T19:59:04.134+08:00,579,1.158000,0,1001,2,998,4,1.000000,2.000000,-2.000000,4.000000
208510,2026-07-29T19:59:04.134+08:00,580,1.160000,0,1006,4,1002,4,6.000000,4.000000,2.000000,4.000000
208511,2026-07-29T19:59:04.135+08:00,581,1.162000,0,1004,4,1002,4,4.000000,4.000000,2.000000,4.000000
208512,2026-07-29T19:59:04.135+08:00,582,1.164000,0,997,4,1000,4,-3.000000,4.000000,0.000000,4.000000
208513,2026-07-29T19:59:04.135+08:00,583,1.166000,0,994,4,998,4,-6.000000,4.000000,-2.000000,4.000000
208514,2026-07-29T19:59:04.137+08:00,584,1.168000,0,998,4,999,4,-2.000000,4.000000,-1.000000,4.000000
208515,2026-07-29T19:59:04.154+08:00,585,1.170000,0,1001,4,1000,4,1.000000,4.000000,0.000000,4.000000
208516,2026-07-29T19:59:04.154+08:00,586,1.172000,0,999,4,1000,4,-1.000000,4.000000,0.000000,4.000000
208517,2026-07-29T19:59:04.154+08:00,587,1.174000,0,998,4,998,4,-2.000000,4.000000,-2.000000,4.000000
208518,2026-07-29T19:59:04.154+08:00,588,1.176000,0,1002,4,998,4,2.000000,4.000000,-2.000000,4.000000
208519,2026-07-29T19:59:04.154+08:00,589,1.178000,0,1006,4,1000,4,6.000000,4.000000,0.000000,4.000000
208520,2026-07-29T19:59:04.154+08:00,590,1.180000,0,1002,4,1002,4,2.000000,4.000000,2.000000,4.000000
208521,2026-07-29T19:59:04.154+08:00,591,1.182000,0,992,4,1000,4,-8.000000,4.000000,0.000000,4.000000
208522,2026-07-29T19:59:04.154+08:00,592,1.184000,0,991,4,998,4,-9.000000,4.000000,-2.000000,4.000000
208523,2026-07-29T19:59:04.164+08:00,593,1.186000,0,999,4,998,4,-1.000000,4.000000,-2.000000,4.000000
208524,2026-07-29T19:59:04.164+08:00,594,1.188000,0,1008,4,999,4,8.000000,4.000000,-1.000000,4.000000
208525,2026-07-29T19:59:04.164+08:00,595,1.190000,0,1007,4,1000,4,7.000000,4.000000,0.000000,4.000000
208526,2026-07-29T19:59:04.164+08:00,596,1.192000,0,999,4,1000,4,-1.000000,4.000000,0.000000,4.000000
208527,2026-07-29T19:59:04.187+08:00,597,1.194000,0,994,4,999,2,-6.000000,4.000000,-1.000000,2.000000
208528,2026-07-29T19:59:04.187+08:00,598,1.196000,0,995,4,1000,2,-5.000000,4.000000,0.000000,2.000000
208529,2026-07-29T19:59:04.187+08:00,599,1.198000,0,997,4,1001,2,-3.000000,4.000000,1.000000,2.000000
208530,2026-07-29T19:59:04.187+08:00,600,1.200000,0,999,4,999,2,-1.000000,4.000000,-1.000000,2.000000
208531,2026-07-29T19:59:04.187+08:00,601,1.202000,0,1002,4,997,2,2.000000,4.000000,-3.000000,2.000000
208532,2026-07-29T19:59:04.187+08:00,602,1.204000,0,1006,4,998,2,6.000000,4.000000,-2.000000,2.000000
208533,2026-07-29T19:59:04.187+08:00,603,1.206000,0,1004,4,1001,2,4.000000,4.000000,1.000000,2.000000
208534,2026-07-29T19:59:04.187+08:00,604,1.208000,0,997,4,1002,2,-3.000000,4.000000,2.000000,2.000000
208535,2026-07-29T19:59:04.187+08:00,605,1.210000,0,991,4,1000,2,-9.000000,4.000000,0.000000,2.000000
208536,2026-07-29T19:59:04.187+08:00,606,1.212000,0,994,4,997,2,-6.000000,4.000000,-3.000000,2.000000
208537,2026-07-29T19:59:04.187+08:00,607,1.214000,0,1002,4,998,2,2.000000,4.000000,-2.000000,2.000000
208538,2026-07-29T19:59:04.211+08:00,608,1.216000,0,1006,4,1000,2,6.000000,4.000000,0.000000,2.000000
208539,2026-07-29T19:59:04.211+08:00,609,1.218000,0,1004,4,1001,2,4.000000,4.000000,1.000000,2.000000
208540,2026-07-29T19:59:04.211+08:00,610,1.220000,0,999,4,999,2,-1.000000,4.000000,-1.000000,2.000000
208541,2026-07-29T19:59:04.211+08:00,611,1.222000,0,996,4,998,2,-4.000000,4.000000,-2.000000,2.000000
208542,2026-07-29T19:59:04.211+08:00,612,1.224000,0,995,4,1000,2,-5.000000,4.000000,0.000000,2.000000
208543,2026-07-29T19:59:04.211+08:00,613,1.226000,0,996,4,1002,2,-4.000000,4.000000,2.000000,2.000000
208544,2026-07-29T19:59:04.211+08:00,614,1.228000,0,1000,4,1002,2,0.000000,4.000000,2.000000,2.000000
208545,2026-07-29T19:59:04.211+08:00,615,1.230000,0,1004,4,998,2,4.000000,4.000000,-2.000000,2.000000
208546,2026-07-29T19:59:04.211+08:00,616,1.232000,0,1004,4,996,2,4.000000,4.000000,-4.000000,2.000000
208547,2026-07-29T19:59:04.211+08:00,617,1.234000,0,1001,4,996,2,1.000000,4.000000,-4.000000,2.000000
208548,2026-07-29T19:59:04.211+08:00,618,1.236000,0,997,4,1001,2,-3.000000,4.000000,1.000000,2.000000
208549,2026-07-29T19:59:04.211+08:00,619,1.238000,0,995,4,1005,2,-5.000000,4.000000,5.000000,2.000000
208550,2026-07-29T19:59:04.211+08:00,620,1.240000,0,997,4,1004,2,-3.000000,4.000000,4.000000,2.000000
208551,2026-07-29T19:59:04.211+08:00,621,1.242000,0,999,4,997,2,-1.000000,4.000000,-3.000000,2.000000
208552,2026-07-29T19:59:04.213+08:00,622,1.244000,0,1002,4,993,2,2.000000,4.000000,-7.000000,2.000000
208553,2026-07-29T19:59:04.222+08:00,623,1.246000,0,1002,4,996,2,2.000000,4.000000,-4.000000,2.000000
208554,2026-07-29T19:59:04.222+08:00,624,1.248000,0,1001,4,1002,2,1.000000,4.000000,2.000000,2.000000
208555,2026-07-29T19:59:04.222+08:00,625,1.250000,0,1000,4,1004,2,0.000000,4.000000,4.000000,2.000000
208556,2026-07-29T19:59:04.225+08:00,626,1.252000,0,998,4,1002,2,-2.000000,4.000000,2.000000,2.000000
208557,2026-07-29T19:59:04.225+08:00,627,1.254000,0,996,4,999,2,-4.000000,4.000000,-1.000000,2.000000
208558,2026-07-29T19:59:04.225+08:00,628,1.256000,0,997,4,997,2,-3.000000,4.000000,-3.000000,2.000000
208559,2026-07-29T19:59:04.228+08:00,629,1.258000,0,1001,4,998,2,1.000000,4.000000,-2.000000,2.000000
208560,2026-07-29T19:59:04.238+08:00,630,1.260000,0,1004,4,998,2,4.000000,4.000000,-2.000000,2.000000
208561,2026-07-29T19:59:04.238+08:00,631,1.262000,0,1003,4,999,2,3.000000,4.000000,-1.000000,2.000000
208562,2026-07-29T19:59:04.238+08:00,632,1.264000,0,998,4,1001,2,-2.000000,4.000000,1.000000,2.000000
208563,2026-07-29T19:59:04.238+08:00,633,1.266000,0,996,4,1002,2,-4.000000,4.000000,2.000000,2.000000
208564,2026-07-29T19:59:04.246+08:00,634,1.268000,0,998,4,1001,2,-2.000000,4.000000,1.000000,2.000000
208565,2026-07-29T19:59:04.246+08:00,635,1.270000,0,1000,4,999,2,0.000000,4.000000,-1.000000,2.000000
208566,2026-07-29T19:59:04.246+08:00,636,1.272000,0,1000,4,997,2,0.000000,4.000000,-3.000000,2.000000
208567,2026-07-29T19:59:04.246+08:00,637,1.274000,0,1001,4,996,2,1.000000,4.000000,-4.000000,2.000000
208568,2026-07-29T19:59:04.252+08:00,638,1.276000,0,1002,4,998,2,2.000000,4.000000,-2.000000,2.000000
208569,2026-07-29T19:59:04.252+08:00,639,1.278000,0,1001,4,1002,2,1.000000,4.000000,2.000000,2.000000
208570,2026-07-29T19:59:04.252+08:00,640,1.280000,0,997,4,1005,2,-3.000000,4.000000,5.000000,2.000000
208571,2026-07-29T19:59:04.267+08:00,641,1.282000,0,994,4,1003,2,-6.000000,4.000000,3.000000,2.000000
208572,2026-07-29T19:59:04.267+08:00,642,1.284000,0,999,4,997,2,-1.000000,4.000000,-3.000000,2.000000
208573,2026-07-29T19:59:04.267+08:00,643,1.286000,0,1005,4,993,2,5.000000,4.000000,-7.000000,2.000000
208574,2026-07-29T19:59:04.267+08:00,644,1.288000,0,1004,4,995,2,4.000000,4.000000,-5.000000,2.000000
208575,2026-07-29T19:59:04.286+08:00,645,1.290000,0,998,4,1002,2,-2.000000,4.000000,2.000000,2.000000
208576,2026-07-29T19:59:04.286+08:00,646,1.292000,0,994,4,1006,2,-6.000000,4.000000,6.000000,2.000000
208577,2026-07-29T19:59:04.286+08:00,647,1.294000,0,997,4,1003,2,-3.000000,4.000000,3.000000,2.000000
208578,2026-07-29T19:59:04.286+08:00,648,1.296000,0,1003,4,997,2,3.000000,4.000000,-3.000000,2.000000
208579,2026-07-29T19:59:04.286+08:00,649,1.298000,0,1004,4,994,2,4.000000,4.000000,-6.000000,2.000000
208580,2026-07-29T19:59:04.286+08:00,650,1.300000,0,1000,4,996,2,0.000000,4.000000,-4.000000,2.000000
208581,2026-07-29T19:59:04.286+08:00,651,1.302000,0,997,4,1000,2,-3.000000,4.000000,0.000000,2.000000
208582,2026-07-29T19:59:04.286+08:00,652,1.304000,0,997,4,1002,2,-3.000000,4.000000,2.000000,2.000000
208583,2026-07-29T19:59:04.286+08:00,653,1.306000,0,999,4,1002,2,-1.000000,4.000000,2.000000,2.000000
208584,2026-07-29T19:59:04.286+08:00,654,1.308000,0,1001,4,1000,2,1.000000,4.000000,0.000000,2.000000
208585,2026-07-29T19:59:04.286+08:00,655,1.310000,0,1002,4,999,2,2.000000,4.000000,-1.000000,2.000000
208586,2026-07-29T19:59:04.286+08:00,656,1.312000,0,1001,4,998,2,1.000000,4.000000,-2.000000,2.000000
208587,2026-07-29T19:59:04.286+08:00,657,1.314000,0,998,4,997,2,-2.000000,4.000000,-3.000000,2.000000
208588,2026-07-29T19:59:04.286+08:00,658,1.316000,0,997,4,998,2,-3.000000,4.000000,-2.000000,2.000000
208589,2026-07-29T19:59:04.286+08:00,659,1.318000,0,999,4,1000,2,-1.000000,4.000000,0.000000,2.000000
208590,2026-07-29T19:59:04.298+08:00,660,1.320000,0,1001,4,1003,2,1.000000,4.000000,3.000000,2.000000
208591,2026-07-29T19:59:04.298+08:00,661,1.322000,0,1001,4,1002,2,1.000000,4.000000,2.000000,2.000000
208592,2026-07-29T19:59:04.298+08:00,662,1.324000,0,999,4,998,2,-1.000000,4.000000,-2.000000,2.000000
208593,2026-07-29T19:59:04.302+08:00,663,1.326000,0,999,4,996,2,-1.000000,4.000000,-4.000000,2.000000
208594,2026-07-29T19:59:04.302+08:00,664,1.328000,0,999,4,998,2,-1.000000,4.000000,-2.000000,2.000000
208595,2026-07-29T19:59:04.302+08:00,665,1.330000,0,1000,4,1002,2,0.000000,4.000000,2.000000,2.000000
208596,2026-07-29T19:59:04.309+08:00,666,1.332000,0,1000,4,1002,2,0.000000,4.000000,2.000000,2.000000
208597,2026-07-29T19:59:04.309+08:00,667,1.334000,0,1001,4,999,2,1.000000,4.000000,-1.000000,2.000000
208598,2026-07-29T19:59:04.319+08:00,668,1.336000,0,1001,4,998,2,1.000000,4.000000,-2.000000,2.000000
208599,2026-07-29T19:59:04.325+08:00,669,1.338000,0,998,4,1001,2,-2.000000,4.000000,1.000000,2.000000
208600,2026-07-29T19:59:04.325+08:00,670,1.340000,0,995,4,1001,2,-5.000000,4.000000,1.000000,2.000000
208601,2026-07-29T19:59:04.325+08:00,671,1.342000,0,998,4,999,2,-2.000000,4.000000,-1.000000,2.000000
208602,2026-07-29T19:59:04.325+08:00,672,1.344000,0,1004,4,996,2,4.000000,4.000000,-4.000000,2.000000
208603,2026-07-29T19:59:04.325+08:00,673,1.346000,0,1006,4,998,2,6.000000,4.000000,-2.000000,2.000000
208604,2026-07-29T19:59:04.325+08:00,674,1.348000,0,999,4,1002,2,-1.000000,4.000000,2.000000,2.000000
208605,2026-07-29T19:59:04.325+08:00,675,1.350000,0,992,4,1004,2,-8.000000,4.000000,4.000000,2.000000
208606,2026-07-29T19:59:04.338+08:00,676,1.352000,0,994,4,1002,2,-6.000000,4.000000,2.000000,2.000000
208607,2026-07-29T19:59:04.338+08:00,677,1.354000,0,1003,4,997,2,3.000000,4.000000,-3.000000,2.000000
208608,2026-07-29T19:59:04.338+08:00,678,1.356000,0,1007,4,993,2,7.000000,4.000000,-7.000000,2.000000
208609,2026-07-29T19:59:04.338+08:00,679,1.358000,0,1001,4,996,2,1.000000,4.000000,-4.000000,2.000000
208610,2026-07-29T19:59:04.338+08:00,680,1.360000,0,993,4,1003,2,-7.000000,4.000000,3.000000,2.000000
208611,2026-07-29T19:59:04.338+08:00,681,1.362000,0,994,4,1008,2,-6.000000,4.000000,8.000000,2.000000
208612,2026-07-29T19:59:04.338+08:00,682,1.364000,0,1002,4,1004,2,2.000000,4.000000,4.000000,2.000000
208613,2026-07-29T19:59:04.367+08:00,683,1.366000,0,1005,4,995,2,5.000000,4.000000,-5.000000,2.000000
208614,2026-07-29T19:59:04.367+08:00,684,1.368000,0,1000,4,992,4,0.000000,4.000000,-8.000000,4.000000
208615,2026-07-29T19:59:04.367+08:00,685,1.370000,0,995,4,996,4,-5.000000,4.000000,-4.000000,4.000000
208616,2026-07-29T19:59:04.367+08:00,686,1.372000,0,997,4,1003,2,-3.000000,4.000000,3.000000,2.000000
208617,2026-07-29T19:59:04.367+08:00,687,1.374000,0,1003,4,1005,4,3.000000,4.000000,5.000000,4.000000
208618,2026-07-29T19:59:04.367+08:00,688,1.376000,0,1003,4,1001,2,3.000000,4.000000,1.000000,2.000000
208619,2026-07-29T19:59:04.367+08:00,689,1.378000,0,998,4,996,2,-2.000000,4.000000,-4.000000,2.000000
208620,2026-07-29T19:59:04.367+08:00,690,1.380000,0,996,4,997,2,-4.000000,4.000000,-3.000000,2.000000
208621,2026-07-29T19:59:04.367+08:00,691,1.382000,0,999,4,1001,2,-1.000000,4.000000,1.000000,2.000000
208622,2026-07-29T19:59:04.367+08:00,692,1.384000,0,1003,4,1003,2,3.000000,4.000000,3.000000,2.000000
208623,2026-07-29T19:59:04.367+08:00,693,1.386000,0,1001,4,999,2,1.000000,4.000000,-1.000000,2.000000
208624,2026-07-29T19:59:04.367+08:00,694,1.388000,0,997,4,995,2,-3.000000,4.000000,-5.000000,2.000000
208625,2026-07-29T19:59:04.367+08:00,695,1.390000,0,998,4,997,2,-2.000000,4.000000,-3.000000,2.000000
208626,2026-07-29T19:59:04.367+08:00,696,1.392000,0,1001,4,1003,2,1.000000,4.000000,3.000000,2.000000
208627,2026-07-29T19:59:04.367+08:00,697,1.394000,0,1001,4,1006,2,1.000000,4.000000,6.000000,2.000000
208628,2026-07-29T19:59:04.371+08:00,698,1.396000,0,999,4,1001,2,-1.000000,4.000000,1.000000,2.000000
208629,2026-07-29T19:59:04.371+08:00,699,1.398000,0,999,4,994,2,-1.000000,4.000000,-6.000000,2.000000
208630,2026-07-29T19:59:04.371+08:00,700,1.400000,0,999,4,993,2,-1.000000,4.000000,-7.000000,2.000000
208631,2026-07-29T19:59:04.375+08:00,701,1.402000,0,999,4,998,2,-1.000000,4.000000,-2.000000,2.000000
208632,2026-07-29T19:59:04.375+08:00,702,1.404000,0,999,4,1004,4,-1.000000,4.000000,4.000000,4.000000
208633,2026-07-29T19:59:04.375+08:00,703,1.406000,0,1001,4,1005,4,1.000000,4.000000,5.000000,4.000000
208634,2026-07-29T19:59:04.377+08:00,704,1.408000,0,1002,4,1003,4,2.000000,4.000000,3.000000,4.000000
208635,2026-07-29T19:59:04.393+08:00,705,1.410000,0,1000,4,997,4,0.000000,4.000000,-3.000000,4.000000
208636,2026-07-29T19:59:04.393+08:00,706,1.412000,0,997,4,994,4,-3.000000,4.000000,-6.000000,4.000000
208637,2026-07-29T19:59:04.393+08:00,707,1.414000,0,997,4,995,4,-3.000000,4.000000,-5.000000,4.000000
208638,2026-07-29T19:59:04.393+08:00,708,1.416000,0,999,4,1001,4,-1.000000,4.000000,1.000000,4.000000
208639,2026-07-29T19:59:04.393+08:00,709,1.418000,0,1002,4,1005,4,2.000000,4.000000,5.000000,4.000000
208640,2026-07-29T19:59:04.398+08:00,710,1.420000,0,1002,4,1003,4,2.000000,4.000000,3.000000,4.000000
208641,2026-07-29T19:59:04.398+08:00,711,1.422000,0,1000,4,998,4,0.000000,4.000000,-2.000000,4.000000
208642,2026-07-29T19:59:04.398+08:00,712,1.424000,0,998,4,996,4,-2.000000,4.000000,-4.000000,4.000000
208643,2026-07-29T19:59:04.428+08:00,713,1.426000,0,997,4,999,4,-3.000000,4.000000,-1.000000,4.000000
208644,2026-07-29T19:59:04.428+08:00,714,1.428000,0,998,4,1001,4,-2.000000,4.000000,1.000000,4.000000
208645,2026-07-29T19:59:04.428+08:00,715,1.430000,0,1001,4,999,4,1.000000,4.000000,-1.000000,4.000000
208646,2026-07-29T19:59:04.428+08:00,716,1.432000,0,1002,4,998,4,2.000000,4.000000,-2.000000,4.000000
208647,2026-07-29T19:59:04.428+08:00,717,1.434000,0,1000,4,1000,4,0.000000,4.000000,0.000000,4.000000
208648,2026-07-29T19:59:04.428+08:00,718,1.436000,0,998,4,1002,4,-2.000000,4.000000,2.000000,4.000000
208649,2026-07-29T19:59:04.456+08:00,719,1.438000,0,997,4,1002,4,-3.000000,4.000000,2.000000,4.000000
208650,2026-07-29T19:59:04.456+08:00,720,1.440000,0,998,4,999,4,-2.000000,4.000000,-1.000000,4.000000
208651,2026-07-29T19:59:04.456+08:00,721,1.442000,0,1001,4,996,4,1.000000,4.000000,-4.000000,4.000000
208652,2026-07-29T19:59:04.456+08:00,722,1.444000,0,1003,4,996,4,3.000000,4.000000,-4.000000,4.000000
208653,2026-07-29T19:59:04.456+08:00,723,1.446000,0,1002,4,998,4,2.000000,4.000000,-2.000000,4.000000
208654,2026-07-29T19:59:04.456+08:00,724,1.448000,0,999,4,1003,4,-1.000000,4.000000,3.000000,4.000000
208655,2026-07-29T19:59:04.456+08:00,725,1.450000,0,994,4,1005,4,-6.000000,4.000000,5.000000,4.000000
208656,2026-07-29T19:59:04.456+08:00,726,1.452000,0,996,4,1002,4,-4.000000,4.000000,2.000000,4.000000
208657,2026-07-29T19:59:04.456+08:00,727,1.454000,0,1003,4,997,4,3.000000,4.000000,-3.000000,4.000000
208658,2026-07-29T19:59:04.456+08:00,728,1.456000,0,1006,4,994,4,6.000000,4.000000,-6.000000,4.000000
208659,2026-07-29T19:59:04.456+08:00,729,1.458000,0,1000,4,996,4,0.000000,4.000000,-4.000000,4.000000
208660,2026-07-29T19:59:04.456+08:00,730,1.460000,0,994,4,1000,4,-6.000000,4.000000,0.000000,4.000000
208661,2026-07-29T19:59:04.456+08:00,731,1.462000,0,997,4,1004,4,-3.000000,4.000000,4.000000,4.000000
208662,2026-07-29T19:59:04.456+08:00,732,1.464000,0,1003,4,1005,4,3.000000,4.000000,5.000000,4.000000
208663,2026-07-29T19:59:04.456+08:00,733,1.466000,0,1003,4,1002,4,3.000000,4.000000,2.000000,4.000000
208664,2026-07-29T19:59:04.456+08:00,734,1.468000,0,997,2,996,4,-3.000000,2.000000,-4.000000,4.000000
208665,2026-07-29T19:59:04.456+08:00,735,1.470000,0,996,4,992,4,-4.000000,4.000000,-8.000000,4.000000
208666,2026-07-29T19:59:04.456+08:00,736,1.472000,0,1002,2,995,4,2.000000,2.000000,-5.000000,4.000000
208667,2026-07-29T19:59:04.456+08:00,737,1.474000,0,1005,2,1003,4,5.000000,2.000000,3.000000,4.000000
208668,2026-07-29T19:59:04.456+08:00,738,1.476000,0,999,2,1008,4,-1.000000,2.000000,8.000000,4.000000
208669,2026-07-29T19:59:04.456+08:00,739,1.478000,0,991,4,1005,4,-9.000000,4.000000,5.000000,4.000000
208670,2026-07-29T19:59:04.456+08:00,740,1.480000,0,995,4,995,4,-5.000000,4.000000,-5.000000,4.000000
208671,2026-07-29T19:59:04.456+08:00,741,1.482000,0,1006,4,991,4,6.000000,4.000000,-9.000000,4.000000
208672,2026-07-29T19:59:04.456+08:00,742,1.484000,0,1008,4,996,4,8.000000,4.000000,-4.000000,4.000000
208673,2026-07-29T19:59:04.460+08:00,743,1.486000,0,999,4,1003,4,-1.000000,4.000000,3.000000,4.000000
208674,2026-07-29T19:59:04.463+08:00,744,1.488000,0,992,4,1005,4,-8.000000,4.000000,5.000000,4.000000
208675,2026-07-29T19:59:04.463+08:00,745,1.490000,0,995,4,1002,4,-5.000000,4.000000,2.000000,4.000000
208676,2026-07-29T19:59:04.463+08:00,746,1.492000,0,1004,4,998,4,4.000000,4.000000,-2.000000,4.000000
208677,2026-07-29T19:59:04.467+08:00,747,1.494000,0,1005,4,996,4,5.000000,4.000000,-4.000000,4.000000
208678,2026-07-29T19:59:04.467+08:00,748,1.496000,0,998,4,997,4,-2.000000,4.000000,-3.000000,4.000000
208679,2026-07-29T19:59:04.467+08:00,749,1.498000,0,994,4,1000,4,-6.000000,4.000000,0.000000,4.000000
208680,2026-07-29T19:59:04.481+08:00,750,1.500000,0,997,4,1002,4,-3.000000,4.000000,2.000000,4.000000
208681,2026-07-29T19:59:04.485+08:00,751,1.502000,0,1005,4,1002,4,5.000000,4.000000,2.000000,4.000000
208682,2026-07-29T19:59:04.485+08:00,752,1.504000,0,1006,4,1000,4,6.000000,4.000000,0.000000,4.000000
208683,2026-07-29T19:59:04.485+08:00,753,1.506000,0,999,4,998,4,-1.000000,4.000000,-2.000000,4.000000
208684,2026-07-29T19:59:04.485+08:00,754,1.508000,0,991,4,998,4,-9.000000,4.000000,-2.000000,4.000000
208685,2026-07-29T19:59:04.485+08:00,755,1.510000,0,992,4,999,4,-8.000000,4.000000,-1.000000,4.000000
208686,2026-07-29T19:59:04.485+08:00,756,1.512000,0,1001,4,999,4,1.000000,4.000000,-1.000000,4.000000
208687,2026-07-29T19:59:04.492+08:00,757,1.514000,0,1009,4,999,4,9.000000,4.000000,-1.000000,4.000000
208688,2026-07-29T19:59:04.492+08:00,758,1.516000,0,1008,4,1001,4,8.000000,4.000000,1.000000,4.000000
208689,2026-07-29T19:59:04.492+08:00,759,1.518000,0,998,4,1002,4,-2.000000,4.000000,2.000000,4.000000
208690,2026-07-29T19:59:04.492+08:00,760,1.520000,0,990,4,1000,4,-10.000000,4.000000,0.000000,4.000000
208691,2026-07-29T19:59:04.531+08:00,761,1.522000,0,992,4,997,4,-8.000000,4.000000,-3.000000,4.000000
208692,2026-07-29T19:59:04.531+08:00,762,1.524000,0,1000,4,997,4,0.000000,4.000000,-3.000000,4.000000
208693,2026-07-29T19:59:04.531+08:00,763,1.526000,0,1005,4,999,4,5.000000,4.000000,-1.000000,4.000000
208694,2026-07-29T19:59:04.531+08:00,764,1.528000,0,1004,4,1001,4,4.000000,4.000000,1.000000,4.000000
208695,2026-07-29T19:59:04.533+08:00,765,1.530000,0,1001,4,1001,4,1.000000,4.000000,1.000000,4.000000
208696,2026-07-29T19:59:04.533+08:00,766,1.532000,0,999,4,1000,4,-1.000000,4.000000,0.000000,4.000000
208697,2026-07-29T19:59:04.533+08:00,767,1.534000,0,996,4,1001,4,-4.000000,4.000000,1.000000,4.000000
208698,2026-07-29T19:59:04.533+08:00,768,1.536000,0,995,4,1000,4,-5.000000,4.000000,0.000000,4.000000
208699,2026-07-29T19:59:04.533+08:00,769,1.538000,0,996,4,998,4,-4.000000,4.000000,-2.000000,4.000000
208700,2026-07-29T19:59:04.533+08:00,770,1.540000,0,1002,4,997,4,2.000000,4.000000,-3.000000,4.000000
208701,2026-07-29T19:59:04.533+08:00,771,1.542000,0,1006,4,999,4,6.000000,4.000000,-1.000000,4.000000
208702,2026-07-29T19:59:04.533+08:00,772,1.544000,0,1005,4,1002,4,5.000000,4.000000,2.000000,4.000000
208703,2026-07-29T19:59:04.533+08:00,773,1.546000,0,998,4,1002,4,-2.000000,4.000000,2.000000,4.000000
208704,2026-07-29T19:59:04.533+08:00,774,1.548000,0,994,4,1001,4,-6.000000,4.000000,1.000000,4.000000
208705,2026-07-29T19:59:04.533+08:00,775,1.550000,0,995,4,998,4,-5.000000,4.000000,-2.000000,4.000000
208706,2026-07-29T19:59:04.533+08:00,776,1.552000,0,1000,4,997,4,0.000000,4.000000,-3.000000,4.000000
208707,2026-07-29T19:59:04.533+08:00,777,1.554000,0,1003,4,997,4,3.000000,4.000000,-3.000000,4.000000
208708,2026-07-29T19:59:04.533+08:00,778,1.556000,0,1003,4,999,4,3.000000,4.000000,-1.000000,4.000000
208709,2026-07-29T19:59:04.533+08:00,779,1.558000,0,1001,4,1002,4,1.000000,4.000000,2.000000,4.000000
208710,2026-07-29T19:59:04.537+08:00,780,1.560000,0,998,4,1004,4,-2.000000,4.000000,4.000000,4.000000
208711,2026-07-29T19:59:04.537+08:00,781,1.562000,0,996,4,1001,4,-4.000000,4.000000,1.000000,4.000000
208712,2026-07-29T19:59:04.537+08:00,782,1.564000,0,998,4,997,4,-2.000000,4.000000,-3.000000,4.000000
208713,2026-07-29T19:59:04.540+08:00,783,1.566000,0,1000,4,996,4,0.000000,4.000000,-4.000000,4.000000
208714,2026-07-29T19:59:04.540+08:00,784,1.568000,0,1001,4,999,4,1.000000,4.000000,-1.000000,4.000000
208715,2026-07-29T19:59:04.540+08:00,785,1.570000,0,1001,4,1002,4,1.000000,4.000000,2.000000,4.000000
208716,2026-07-29T19:59:04.543+08:00,786,1.572000,0,1001,4,1001,4,1.000000,4.000000,1.000000,4.000000
208717,2026-07-29T19:59:04.543+08:00,787,1.574000,0,1000,4,1000,4,0.000000,4.000000,0.000000,4.000000
208718,2026-07-29T19:59:04.558+08:00,788,1.576000,0,999,4,1000,4,-1.000000,4.000000,0.000000,4.000000
208719,2026-07-29T19:59:04.558+08:00,789,1.578000,0,997,4,999,4,-3.000000,4.000000,-1.000000,4.000000
208720,2026-07-29T19:59:04.558+08:00,790,1.580000,0,998,4,998,4,-2.000000,4.000000,-2.000000,4.000000
208721,2026-07-29T19:59:04.564+08:00,791,1.582000,0,1001,4,998,4,1.000000,4.000000,-2.000000,4.000000
208722,2026-07-29T19:59:04.564+08:00,792,1.584000,0,1003,4,999,4,3.000000,4.000000,-1.000000,4.000000
208723,2026-07-29T19:59:04.564+08:00,793,1.586000,0,1000,4,1001,4,0.000000,4.000000,1.000000,4.000000
208724,2026-07-29T19:59:04.564+08:00,794,1.588000,0,997,4,1001,4,-3.000000,4.000000,1.000000,4.000000
208725,2026-07-29T19:59:04.573+08:00,795,1.590000,0,998,4,1000,4,-2.000000,4.000000,0.000000,4.000000
208726,2026-07-29T19:59:04.573+08:00,796,1.592000,0,1001,4,998,4,1.000000,4.000000,-2.000000,4.000000
208727,2026-07-29T19:59:04.573+08:00,797,1.594000,0,1002,4,998,4,2.000000,4.000000,-2.000000,4.000000
208728,2026-07-29T19:59:04.573+08:00,798,1.596000,0,1000,4,1000,4,0.000000,4.000000,0.000000,4.000000
208729,2026-07-29T19:59:04.604+08:00,799,1.598000,0,998,4,1002,4,-2.000000,4.000000,2.000000,4.000000
208730,2026-07-29T19:59:04.604+08:00,800,1.600000,0,999,4,1001,4,-1.000000,4.000000,1.000000,4.000000
208731,2026-07-29T19:59:04.604+08:00,801,1.602000,0,1000,4,998,4,0.000000,4.000000,-2.000000,4.000000
208732,2026-07-29T19:59:04.604+08:00,802,1.604000,0,1001,4,996,4,1.000000,4.000000,-4.000000,4.000000
208733,2026-07-29T19:59:04.604+08:00,803,1.606000,0,1000,4,999,4,0.000000,4.000000,-1.000000,4.000000
208734,2026-07-29T19:59:04.604+08:00,804,1.608000,0,999,4,1003,4,-1.000000,4.000000,3.000000,4.000000
208735,2026-07-29T19:59:04.604+08:00,805,1.610000,0,999,4,1003,4,-1.000000,4.000000,3.000000,4.000000
208736,2026-07-29T19:59:04.604+08:00,806,1.612000,0,999,4,999,4,-1.000000,4.000000,-1.000000,4.000000
208737,2026-07-29T19:59:04.604+08:00,807,1.614000,0,1000,4,996,4,0.000000,4.000000,-4.000000,4.000000
208738,2026-07-29T19:59:04.604+08:00,808,1.616000,0,1000,4,998,4,0.000000,4.000000,-2.000000,4.000000
208739,2026-07-29T19:59:04.604+08:00,809,1.618000,0,999,4,1002,4,-1.000000,4.000000,2.000000,4.000000
208740,2026-07-29T19:59:04.604+08:00,810,1.620000,0,998,4,1002,4,-2.000000,4.000000,2.000000,4.000000
208741,2026-07-29T19:59:04.604+08:00,811,1.622000,0,1000,4,998,4,0.000000,4.000000,-2.000000,4.000000
208742,2026-07-29T19:59:04.604+08:00,812,1.624000,0,1003,4,997,4,3.000000,4.000000,-3.000000,4.000000
208743,2026-07-29T19:59:04.604+08:00,813,1.626000,0,1002,4,1000,4,2.000000,4.000000,0.000000,4.000000
208744,2026-07-29T19:59:04.604+08:00,814,1.628000,0,997,4,1003,4,-3.000000,4.000000,3.000000,4.000000
208745,2026-07-29T19:59:04.604+08:00,815,1.630000,0,994,4,1001,4,-6.000000,4.000000,1.000000,4.000000
208746,2026-07-29T19:59:04.604+08:00,816,1.632000,0,998,4,998,4,-2.000000,4.000000,-2.000000,4.000000
208747,2026-07-29T19:59:04.604+08:00,817,1.634000,0,1004,4,997,4,4.000000,4.000000,-3.000000,4.000000
208748,2026-07-29T19:59:04.612+08:00,818,1.636000,0,1005,4,998,2,5.000000,4.000000,-2.000000,2.000000
208749,2026-07-29T19:59:04.612+08:00,819,1.638000,0,999,4,1000,2,-1.000000,4.000000,0.000000,2.000000
208750,2026-07-29T19:59:04.612+08:00,820,1.640000,0,994,4,1002,2,-6.000000,4.000000,2.000000,2.000000
208751,2026-07-29T19:59:04.617+08:00,821,1.642000,0,996,4,1002,2,-4.000000,4.000000,2.000000,2.000000
208752,2026-07-29T19:59:04.617+08:00,822,1.644000,0,1001,4,1000,2,1.000000,4.000000,0.000000,2.000000
208753,2026-07-29T19:59:04.617+08:00,823,1.646000,0,1003,4,997,2,3.000000,4.000000,-3.000000,2.000000
208754,2026-07-29T19:59:04.617+08:00,824,1.648000,0,1001,4,995,2,1.000000,4.000000,-5.000000,2.000000
208755,2026-07-29T19:59:04.635+08:00,825,1.650000,0,997,4,998,2,-3.000000,4.000000,-2.000000,2.000000
208756,2026-07-29T19:59:04.635+08:00,826,1.652000,0,997,4,1003,2,-3.000000,4.000000,3.000000,2.000000
208757,2026-07-29T19:59:04.635+08:00,827,1.654000,0,1000,4,1003,2,0.000000,4.000000,3.000000,2.000000
208758,2026-07-29T19:59:04.635+08:00,828,1.656000,0,1003,4,1000,2,3.000000,4.000000,0.000000,2.000000
208759,2026-07-29T19:59:04.642+08:00,829,1.658000,0,1001,4,998,2,1.000000,4.000000,-2.000000,2.000000
208760,2026-07-29T19:59:04.642+08:00,830,1.660000,0,997,4,998,2,-3.000000,4.000000,-2.000000,2.000000
208761,2026-07-29T19:59:04.642+08:00,831,1.662000,0,997,4,998,2,-3.000000,4.000000,-2.000000,2.000000
208762,2026-07-29T19:59:04.642+08:00,832,1.664000,0,1000,4,997,2,0.000000,4.000000,-3.000000,2.000000
208763,2026-07-29T19:59:04.657+08:00,833,1.666000,0,1003,4,1000,2,3.000000,4.000000,0.000000,2.000000
208764,2026-07-29T19:59:04.657+08:00,834,1.668000,0,1000,4,1004,2,0.000000,4.000000,4.000000,2.000000
208765,2026-07-29T19:59:04.657+08:00,835,1.670000,0,997,4,1005,2,-3.000000,4.000000,5.000000,2.000000
208766,2026-07-29T19:59:04.678+08:00,836,1.672000,0,997,4,999,2,-3.000000,4.000000,-1.000000,2.000000
208767,2026-07-29T19:59:04.678+08:00,837,1.674000,0,1001,4,993,2,1.000000,4.000000,-7.000000,2.000000
208768,2026-07-29T19:59:04.678+08:00,838,1.676000,0,1003,4,994,2,3.000000,4.000000,-6.000000,2.000000
208769,2026-07-29T19:59:04.678+08:00,839,1.678000,0,999,4,1001,2,-1.000000,4.000000,1.000000,2.000000
208770,2026-07-29T19:59:04.678+08:00,840,1.680000,0,996,4,1005,2,-4.000000,4.000000,5.000000,2.000000
208771,2026-07-29T19:59:04.678+08:00,841,1.682000,0,998,4,1003,2,-2.000000,4.000000,3.000000,2.000000
208772,2026-07-29T19:59:04.678+08:00,842,1.684000,0,1002,4,999,2,2.000000,4.000000,-1.000000,2.000000
208773,2026-07-29T19:59:04.678+08:00,843,1.686000,0,1002,4,997,2,2.000000,4.000000,-3.000000,2.000000
208774,2026-07-29T19:59:04.678+08:00,844,1.688000,0,998,4,998,2,-2.000000,4.000000,-2.000000,2.000000
208775,2026-07-29T19:59:04.678+08:00,845,1.690000,0,996,4,998,2,-4.000000,4.000000,-2.000000,2.000000
208776,2026-07-29T19:59:04.678+08:00,846,1.692000,0,999,4,998,2,-1.000000,4.000000,-2.000000,2.000000
208777,2026-07-29T19:59:04.678+08:00,847,1.694000,0,1003,4,999,2,3.000000,4.000000,-1.000000,2.000000
208778,2026-07-29T19:59:04.678+08:00,848,1.696000,0,1002,4,1003,2,2.000000,4.000000,3.000000,2.000000
208779,2026-07-29T19:59:04.678+08:00,849,1.698000,0,998,4,1005,2,-2.000000,4.000000,5.000000,2.000000
208780,2026-07-29T19:59:04.678+08:00,850,1.700000,0,996,4,1000,2,-4.000000,4.000000,0.000000,2.000000
208781,2026-07-29T19:59:04.678+08:00,851,1.702000,0,999,4,994,2,-1.000000,4.000000,-6.000000,2.000000
208782,2026-07-29T19:59:04.678+08:00,852,1.704000,0,1002,4,994,2,2.000000,4.000000,-6.000000,2.000000
208783,2026-07-29T19:59:04.678+08:00,853,1.706000,0,1002,4,1000,2,2.000000,4.000000,0.000000,2.000000
208784,2026-07-29T19:59:04.678+08:00,854,1.708000,0,999,4,1005,2,-1.000000,4.000000,5.000000,2.000000
208785,2026-07-29T19:59:04.688+08:00,855,1.710000,0,997,4,1004,2,-3.000000,4.000000,4.000000,2.000000
208786,2026-07-29T19:59:04.688+08:00,856,1.712000,0,999,4,999,2,-1.000000,4.000000,-1.000000,2.000000
208787,2026-07-29T19:59:04.688+08:00,857,1.714000,0,1000,4,997,2,0.000000,4.000000,-3.000000,2.000000
208788,2026-07-29T19:59:04.691+08:00,858,1.716000,0,1000,4,997,2,0.000000,4.000000,-3.000000,2.000000
208789,2026-07-29T19:59:04.691+08:00,859,1.718000,0,1000,4,999,2,0.000000,4.000000,-1.000000,2.000000
208790,2026-07-29T19:59:04.691+08:00,860,1.720000,0,999,4,1000,2,-1.000000,4.000000,0.000000,2.000000
208791,2026-07-29T19:59:04.701+08:00,861,1.722000,0,998,4,1001,2,-2.000000,4.000000,1.000000,2.000000
208792,2026-07-29T19:59:04.701+08:00,862,1.724000,0,999,4,1001,2,-1.000000,4.000000,1.000000,2.000000
208793,2026-07-29T19:59:04.704+08:00,863,1.726000,0,1001,4,1000,2,1.000000,4.000000,0.000000,2.000000
208794,2026-07-29T19:59:04.730+08:00,864,1.728000,0,1002,4,999,2,2.000000,4.000000,-1.000000,2.000000
208795,2026-07-29T19:59:04.730+08:00,865,1.730000,0,998,4,999,2,-2.000000,4.000000,-1.000000,2.000000
208796,2026-07-29T19:59:04.730+08:00,866,1.732000,0,995,4,999,2,-5.000000,4.000000,-1.000000,2.000000
208797,2026-07-29T19:59:04.730+08:00,867,1.734000,0,997,4,1000,2,-3.000000,4.000000,0.000000,2.000000
208798,2026-07-29T19:59:04.730+08:00,868,1.736000,0,1004,4,999,2,4.000000,4.000000,-1.000000,2.000000
208799,2026-07-29T19:59:04.730+08:00,869,1.738000,0,1006,4,999,2,6.000000,4.000000,-1.000000,2.000000
208800,2026-07-29T19:59:04.731+08:00,870,1.740000,0,1000,4,999,2,0.000000,4.000000,-1.000000,2.000000
208801,2026-07-29T19:59:04.731+08:00,871,1.742000,0,994,4,1001,2,-6.000000,4.000000,1.000000,2.000000
208802,2026-07-29T19:59:04.731+08:00,872,1.744000,0,994,4,1002,2,-6.000000,4.000000,2.000000,2.000000
208803,2026-07-29T19:59:04.731+08:00,873,1.746000,0,999,4,1000,2,-1.000000,4.000000,0.000000,2.000000
208804,2026-07-29T19:59:04.731+08:00,874,1.748000,0,1004,4,997,2,4.000000,4.000000,-3.000000,2.000000
208805,2026-07-29T19:59:04.731+08:00,875,1.750000,0,1003,4,996,2,3.000000,4.000000,-4.000000,2.000000
208806,2026-07-29T19:59:04.731+08:00,876,1.752000,0,1001,4,999,2,1.000000,4.000000,-1.000000,2.000000
208807,2026-07-29T19:59:04.731+08:00,877,1.754000,0,999,4,1003,2,-1.000000,4.000000,3.000000,2.000000
208808,2026-07-29T19:59:04.757+08:00,878,1.756000,0,996,4,1003,2,-4.000000,4.000000,3.000000,2.000000
208809,2026-07-29T19:59:04.757+08:00,879,1.758000,0,995,4,999,2,-5.000000,4.000000,-1.000000,2.000000
208810,2026-07-29T19:59:04.757+08:00,880,1.760000,0,999,2,996,2,-1.000000,2.000000,-4.000000,2.000000
208811,2026-07-29T19:59:04.757+08:00,881,1.762000,0,1004,4,997,2,4.000000,4.000000,-3.000000,2.000000
208812,2026-07-29T19:59:04.757+08:00,882,1.764000,0,1005,4,1000,2,5.000000,4.000000,0.000000,2.000000
208813,2026-07-29T19:59:04.757+08:00,883,1.766000,0,1001,2,1001,2,1.000000,2.000000,1.000000,2.000000
208814,2026-07-29T19:59:04.757+08:00,884,1.768000,0,996,2,1000,2,-4.000000,2.000000,0.000000,2.000000
208815,2026-07-29T19:59:04.757+08:00,885,1.770000,0,995,2,999,2,-5.000000,2.000000,-1.000000,2.000000
208816,2026-07-29T19:59:04.757+08:00,886,1.772000,0,997,2,1000,2,-3.000000,2.000000,0.000000,2.000000
208817,2026-07-29T19:59:04.757+08:00,887,1.774000,0,999,2,999,2,-1.000000,2.000000,-1.000000,2.000000
208818,2026-07-29T19:59:04.757+08:00,888,1.776000,0,1003,2,998,2,3.000000,2.000000,-2.000000,2.000000
208819,2026-07-29T19:59:04.757+08:00,889,1.778000,0,1004,2,998,2,4.000000,2.000000,-2.000000,2.000000
208820,2026-07-29T19:59:04.757+08:00,890,1.780000,0,1002,2,1000,2,2.000000,2.000000,0.000000,2.000000
208821,2026-07-29T19:59:04.757+08:00,891,1.782000,0,997,2,1002,2,-3.000000,2.000000,2.000000,2.000000
208822,2026-07-29T19:59:04.757+08:00,892,1.784000,0,994,2,1001,2,-6.000000,2.000000,1.000000,2.000000
208823,2026-07-29T19:59:04.760+08:00,893,1.786000,0,996,2,998,2,-4.000000,2.000000,-2.000000,2.000000
208824,2026-07-29T19:59:04.763+08:00,894,1.788000,0,999,2,997,2,-1.000000,2.000000,-3.000000,2.000000
208825,2026-07-29T19:59:04.763+08:00,895,1.790000,0,1003,2,999,2,3.000000,2.000000,-1.000000,2.000000
208826,2026-07-29T19:59:04.763+08:00,896,1.792000,0,1005,2,1001,2,5.000000,2.000000,1.000000,2.000000
208827,2026-07-29T19:59:04.767+08:00,897,1.794000,0,1003,2,1002,2,3.000000,2.000000,2.000000,2.000000
208828,2026-07-29T19:59:04.767+08:00,898,1.796000,0,998,2,1000,2,-2.000000,2.000000,0.000000,2.000000
208829,2026-07-29T19:59:04.767+08:00,899,1.798000,0,993,2,998,2,-7.000000,2.000000,-2.000000,2.000000
208830,2026-07-29T19:59:04.784+08:00,900,1.800000,0,993,2,998,2,-7.000000,2.000000,-2.000000,2.000000
208831,2026-07-29T19:59:04.784+08:00,901,1.802000,0,999,2,1000,2,-1.000000,2.000000,0.000000,2.000000
208832,2026-07-29T19:59:04.784+08:00,902,1.804000,0,1007,2,1000,2,7.000000,2.000000,0.000000,2.000000
208833,2026-07-29T19:59:04.784+08:00,903,1.806000,0,1008,2,999,2,8.000000,2.000000,-1.000000,2.000000
208834,2026-07-29T19:59:04.784+08:00,904,1.808000,0,1001,2,999,2,1.000000,2.000000,-1.000000,2.000000
208835,2026-07-29T19:59:04.790+08:00,905,1.810000,0,992,2,1000,2,-8.000000,2.000000,0.000000,2.000000
208836,2026-07-29T19:59:04.790+08:00,906,1.812000,0,992,2,1001,2,-8.000000,2.000000,1.000000,2.000000
208837,2026-07-29T19:59:04.790+08:00,907,1.814000,0,999,2,1001,2,-1.000000,2.000000,1.000000,2.000000
208838,2026-07-29T19:59:04.794+08:00,908,1.816000,0,1006,2,999,2,6.000000,2.000000,-1.000000,2.000000
208839,2026-07-29T19:59:04.794+08:00,909,1.818000,0,1003,2,997,2,3.000000,2.000000,-3.000000,2.000000
208840,2026-07-29T19:59:04.794+08:00,910,1.820000,0,998,2,998,2,-2.000000,2.000000,-2.000000,2.000000
208841,2026-07-29T19:59:04.794+08:00,911,1.822000,0,997,2,1000,2,-3.000000,2.000000,0.000000,2.000000
208842,2026-07-29T19:59:04.794+08:00,912,1.824000,0,1001,2,1002,2,1.000000,2.000000,2.000000,2.000000
208843,2026-07-29T19:59:04.794+08:00,913,1.826000,0,1002,2,1002,2,2.000000,2.000000,2.000000,2.000000
208844,2026-07-29T19:59:04.810+08:00,914,1.828000,0,997,4,999,2,-3.000000,4.000000,-1.000000,2.000000
208845,2026-07-29T19:59:04.831+08:00,915,1.830000,0,994,4,997,2,-6.000000,4.000000,-3.000000,2.000000
208846,2026-07-29T19:59:04.831+08:00,916,1.832000,0,998,4,998,2,-2.000000,4.000000,-2.000000,2.000000
208847,2026-07-29T19:59:04.831+08:00,917,1.834000,0,1006,4,1000,2,6.000000,4.000000,0.000000,2.000000
208848,2026-07-29T19:59:04.831+08:00,918,1.836000,0,1006,4,999,2,6.000000,4.000000,-1.000000,2.000000
208849,2026-07-29T19:59:04.831+08:00,919,1.838000,0,999,4,999,2,-1.000000,4.000000,-1.000000,2.000000
208850,2026-07-29T19:59:04.831+08:00,920,1.840000,0,994,4,1000,2,-6.000000,4.000000,0.000000,2.000000
208851,2026-07-29T19:59:04.832+08:00,921,1.842000,0,995,4,1002,2,-5.000000,4.000000,2.000000,2.000000
208852,2026-07-29T19:59:04.832+08:00,922,1.844000,0,1000,4,1001,2,0.000000,4.000000,1.000000,2.000000
208853,2026-07-29T19:59:04.832+08:00,923,1.846000,0,1002,4,997,2,2.000000,4.000000,-3.000000,2.000000
208854,2026-07-29T19:59:04.832+08:00,924,1.848000,0,1002,4,996,2,2.000000,4.000000,-4.000000,2.000000
208855,2026-07-29T19:59:04.832+08:00,925,1.850000,0,1001,4,998,2,1.000000,4.000000,-2.000000,2.000000
208856,2026-07-29T19:59:04.832+08:00,926,1.852000,0,1001,4,1002,2,1.000000,4.000000,2.000000,2.000000
208857,2026-07-29T19:59:04.832+08:00,927,1.854000,0,998,4,1002,2,-2.000000,4.000000,2.000000,2.000000
208858,2026-07-29T19:59:04.832+08:00,928,1.856000,0,996,4,1000,2,-4.000000,4.000000,0.000000,2.000000
208859,2026-07-29T19:59:04.832+08:00,929,1.858000,0,996,4,999,2,-4.000000,4.000000,-1.000000,2.000000
208860,2026-07-29T19:59:04.837+08:00,930,1.860000,0,1001,4,999,2,1.000000,4.000000,-1.000000,2.000000
208861,2026-07-29T19:59:04.837+08:00,931,1.862000,0,1004,4,998,2,4.000000,4.000000,-2.000000,2.000000
208862,2026-07-29T19:59:04.837+08:00,932,1.864000,0,1002,4,997,2,2.000000,4.000000,-3.000000,2.000000
208863,2026-07-29T19:59:04.840+08:00,933,1.866000,0,998,4,999,2,-2.000000,4.000000,-1.000000,2.000000
208864,2026-07-29T19:59:04.840+08:00,934,1.868000,0,996,4,1002,2,-4.000000,4.000000,2.000000,2.000000
208865,2026-07-29T19:59:04.840+08:00,935,1.870000,0,998,4,1002,2,-2.000000,4.000000,2.000000,2.000000
208866,2026-07-29T19:59:04.843+08:00,936,1.872000,0,1001,4,1000,2,1.000000,4.000000,0.000000,2.000000
208867,2026-07-29T19:59:04.843+08:00,937,1.874000,0,1000,4,998,2,0.000000,4.000000,-2.000000,2.000000
208868,2026-07-29T19:59:04.858+08:00,938,1.876000,0,998,4,998,2,-2.000000,4.000000,-2.000000,2.000000
208869,2026-07-29T19:59:04.858+08:00,939,1.878000,0,1000,4,999,2,0.000000,4.000000,-1.000000,2.000000
208870,2026-07-29T19:59:04.858+08:00,940,1.880000,0,1002,4,999,2,2.000000,4.000000,-1.000000,2.000000
208871,2026-07-29T19:59:04.864+08:00,941,1.882000,0,1001,4,999,2,1.000000,4.000000,-1.000000,2.000000
208872,2026-07-29T19:59:04.864+08:00,942,1.884000,0,997,4,1000,2,-3.000000,4.000000,0.000000,2.000000
208873,2026-07-29T19:59:04.864+08:00,943,1.886000,0,995,4,1001,2,-5.000000,4.000000,1.000000,2.000000
208874,2026-07-29T19:59:04.864+08:00,944,1.888000,0,999,4,1001,2,-1.000000,4.000000,1.000000,2.000000
208875,2026-07-29T19:59:04.872+08:00,945,1.890000,0,1003,4,998,2,3.000000,4.000000,-2.000000,2.000000
208876,2026-07-29T19:59:04.872+08:00,946,1.892000,0,1003,4,997,2,3.000000,4.000000,-3.000000,2.000000
208877,2026-07-29T19:59:04.872+08:00,947,1.894000,0,999,4,998,2,-1.000000,4.000000,-2.000000,2.000000
208878,2026-07-29T19:59:04.872+08:00,948,1.896000,0,997,4,1002,2,-3.000000,4.000000,2.000000,2.000000
208879,2026-07-29T19:59:04.872+08:00,949,1.898000,0,998,4,1002,2,-2.000000,4.000000,2.000000,2.000000
208880,2026-07-29T19:59:04.872+08:00,950,1.900000,0,1000,4,999,2,0.000000,4.000000,-1.000000,2.000000
208881,2026-07-29T19:59:04.883+08:00,951,1.902000,0,1000,4,998,2,0.000000,4.000000,-2.000000,2.000000
208882,2026-07-29T19:59:04.883+08:00,952,1.904000,0,1000,4,999,2,0.000000,4.000000,-1.000000,2.000000
208883,2026-07-29T19:59:04.904+08:00,953,1.906000,0,1001,4,1000,2,1.000000,4.000000,0.000000,2.000000
208884,2026-07-29T19:59:04.904+08:00,954,1.908000,0,1000,4,1000,2,0.000000,4.000000,0.000000,2.000000
208885,2026-07-29T19:59:04.904+08:00,955,1.910000,0,998,4,999,2,-2.000000,4.000000,-1.000000,2.000000
208886,2026-07-29T19:59:04.904+08:00,956,1.912000,0,998,4,999,2,-2.000000,4.000000,-1.000000,2.000000
208887,2026-07-29T19:59:04.904+08:00,957,1.914000,0,1000,4,1001,2,0.000000,4.000000,1.000000,2.000000
208888,2026-07-29T19:59:04.904+08:00,958,1.916000,0,1001,4,1001,2,1.000000,4.000000,1.000000,2.000000
208889,2026-07-29T19:59:04.904+08:00,959,1.918000,0,999,4,999,2,-1.000000,4.000000,-1.000000,2.000000
208890,2026-07-29T19:59:04.904+08:00,960,1.920000,0,998,4,998,2,-2.000000,4.000000,-2.000000,2.000000
208891,2026-07-29T19:59:04.904+08:00,961,1.922000,0,1001,4,1000,2,1.000000,4.000000,0.000000,2.000000
208892,2026-07-29T19:59:04.904+08:00,962,1.924000,0,1003,4,1001,2,3.000000,4.000000,1.000000,2.000000
208893,2026-07-29T19:59:04.904+08:00,963,1.926000,0,999,4,1000,2,-1.000000,4.000000,0.000000,2.000000
208894,2026-07-29T19:59:04.904+08:00,964,1.928000,0,995,4,998,2,-5.000000,4.000000,-2.000000,2.000000
208895,2026-07-29T19:59:04.904+08:00,965,1.930000,0,996,4,999,2,-4.000000,4.000000,-1.000000,2.000000
208896,2026-07-29T19:59:04.904+08:00,966,1.932000,0,1002,4,1001,2,2.000000,4.000000,1.000000,2.000000
208897,2026-07-29T19:59:04.904+08:00,967,1.934000,0,1006,4,1000,2,6.000000,4.000000,0.000000,2.000000
208898,2026-07-29T19:59:04.910+08:00,968,1.936000,0,1003,4,998,0,3.000000,4.000000,-2.000000,0.000000
208899,2026-07-29T19:59:04.913+08:00,969,1.938000,0,997,4,997,0,-3.000000,4.000000,-3.000000,0.000000
208900,2026-07-29T19:59:04.913+08:00,970,1.940000,0,994,4,1000,0,-6.000000,4.000000,0.000000,0.000000
208901,2026-07-29T19:59:04.913+08:00,971,1.942000,0,995,4,1003,0,-5.000000,4.000000,3.000000,0.000000
208902,2026-07-29T19:59:04.917+08:00,972,1.944000,0,1000,4,1002,0,0.000000,4.000000,2.000000,0.000000
208903,2026-07-29T19:59:04.917+08:00,973,1.946000,0,1005,4,999,0,5.000000,4.000000,-1.000000,0.000000
208904,2026-07-29T19:59:04.917+08:00,974,1.948000,0,1005,4,997,0,5.000000,4.000000,-3.000000,0.000000
208905,2026-07-29T19:59:04.930+08:00,975,1.950000,0,1000,4,996,2,0.000000,4.000000,-4.000000,2.000000
208906,2026-07-29T19:59:04.936+08:00,976,1.952000,0,996,4,998,2,-4.000000,4.000000,-2.000000,2.000000
208907,2026-07-29T19:59:04.936+08:00,977,1.954000,0,995,4,1002,0,-5.000000,4.000000,2.000000,0.000000
208908,2026-07-29T19:59:04.936+08:00,978,1.956000,0,998,4,1005,2,-2.000000,4.000000,5.000000,2.000000
208909,2026-07-29T19:59:04.943+08:00,979,1.958000,0,1001,4,1002,0,1.000000,4.000000,2.000000,0.000000
208910,2026-07-29T19:59:04.943+08:00,980,1.960000,0,1002,4,996,0,2.000000,4.000000,-4.000000,0.000000
208911,2026-07-29T19:59:04.943+08:00,981,1.962000,0,1002,4,994,2,2.000000,4.000000,-6.000000,2.000000
208912,2026-07-29T19:59:04.943+08:00,982,1.964000,0,1001,4,998,0,1.000000,4.000000,-2.000000,0.000000
208913,2026-07-29T19:59:04.952+08:00,983,1.966000,0,998,4,1003,0,-2.000000,4.000000,3.000000,0.000000
208914,2026-07-29T19:59:04.952+08:00,984,1.968000,0,996,4,1005,2,-4.000000,4.000000,5.000000,2.000000
208915,2026-07-29T19:59:04.952+08:00,985,1.970000,0,997,4,1001,2,-3.000000,4.000000,1.000000,2.000000
208916,2026-07-29T19:59:04.972+08:00,986,1.972000,0,1001,4,997,2,1.000000,4.000000,-3.000000,2.000000
208917,2026-07-29T19:59:04.972+08:00,987,1.974000,0,1003,4,996,2,3.000000,4.000000,-4.000000,2.000000
208918,2026-07-29T19:59:04.972+08:00,988,1.976000,0,1001,4,997,2,1.000000,4.000000,-3.000000,2.000000
208919,2026-07-29T19:59:04.972+08:00,989,1.978000,0,998,4,1000,2,-2.000000,4.000000,0.000000,2.000000
208920,2026-07-29T19:59:04.972+08:00,990,1.980000,0,997,4,1002,2,-3.000000,4.000000,2.000000,2.000000
208921,2026-07-29T19:59:04.972+08:00,991,1.982000,0,999,4,1002,2,-1.000000,4.000000,2.000000,2.000000
208922,2026-07-29T19:59:04.972+08:00,992,1.984000,0,1002,4,1000,2,2.000000,4.000000,0.000000,2.000000
208923,2026-07-29T19:59:04.972+08:00,993,1.986000,0,1002,4,997,2,2.000000,4.000000,-3.000000,2.000000
208924,2026-07-29T19:59:04.972+08:00,994,1.988000,0,999,4,997,2,-1.000000,4.000000,-3.000000,2.000000
208925,2026-07-29T19:59:04.972+08:00,995,1.990000,0,996,4,999,2,-4.000000,4.000000,-1.000000,2.000000
208926,2026-07-29T19:59:04.972+08:00,996,1.992000,0,998,4,1001,2,-2.000000,4.000000,1.000000,2.000000
208927,2026-07-29T19:59:04.972+08:00,997,1.994000,0,1002,4,1002,2,2.000000,4.000000,2.000000,2.000000
208928,2026-07-29T19:59:04.972+08:00,998,1.996000,0,1003,4,1000,2,3.000000,4.000000,0.000000,2.000000
208929,2026-07-29T19:59:04.972+08:00,999,1.998000,0,999,4,998,2,-1.000000,4.000000,-2.000000,2.000000
208930,2026-07-29T19:59:04.972+08:00,1000,2.000000,0,996,4,998,2,-4.000000,4.000000,-2.000000,2.000000
208931,2026-07-29T19:59:04.975+08:00,1001,2.002000,0,998,4,999,2,-2.000000,4.000000,-1.000000,2.000000
208932,2026-07-29T19:59:04.975+08:00,1002,2.004000,0,1002,4,999,2,2.000000,4.000000,-1.000000,2.000000
208933,2026-07-29T19:59:04.975+08:00,1003,2.006000,0,1001,4,999,2,1.000000,4.000000,-1.000000,2.000000
208934,2026-07-29T19:59:04.976+08:00,1004,2.008000,0,997,4,999,2,-3.000000,4.000000,-1.000000,2.000000
208935,2026-07-29T19:59:04.994+08:00,1005,2.010000,0,999,4,1002,2,-1.000000,4.000000,2.000000,2.000000
208936,2026-07-29T19:59:04.994+08:00,1006,2.012000,0,1004,4,1002,2,4.000000,4.000000,2.000000,2.000000
208937,2026-07-29T19:59:04.994+08:00,1007,2.014000,0,1003,4,999,2,3.000000,4.000000,-1.000000,2.000000
208938,2026-07-29T19:59:04.998+08:00,1008,2.016000,0,995,4,996,2,-5.000000,4.000000,-4.000000,2.000000
208939,2026-07-29T19:59:04.998+08:00,1009,2.018000,0,990,4,996,2,-10.000000,4.000000,-4.000000,2.000000
208940,2026-07-29T19:59:04.998+08:00,1010,2.020000,0,998,4,1000,2,-2.000000,4.000000,0.000000,2.000000
208941,2026-07-29T19:59:04.998+08:00,1011,2.022000,0,1010,4,1004,2,10.000000,4.000000,4.000000,2.000000
208942,2026-07-29T19:59:04.998+08:00,1012,2.024000,0,1009,4,1002,2,9.000000,4.000000,2.000000,2.000000
208943,2026-07-29T19:59:05.010+08:00,1013,2.026000,0,996,4,998,2,-4.000000,4.000000,-2.000000,2.000000
208944,2026-07-29T19:59:05.010+08:00,1014,2.028000,0,987,4,997,2,-13.000000,4.000000,-3.000000,2.000000
208945,2026-07-29T19:59:05.010+08:00,1015,2.030000,0,994,4,999,2,-6.000000,4.000000,-1.000000,2.000000
208946,2026-07-29T19:59:05.010+08:00,1016,2.032000,0,1006,4,1000,2,6.000000,4.000000,0.000000,2.000000
208947,2026-07-29T19:59:05.010+08:00,1017,2.034000,0,1008,4,998,2,8.000000,4.000000,-2.000000,2.000000
208948,2026-07-29T19:59:05.010+08:00,1018,2.036000,0,1002,4,999,2,2.000000,4.000000,-1.000000,2.000000
208949,2026-07-29T19:59:05.010+08:00,1019,2.038000,0,995,4,1002,2,-5.000000,4.000000,2.000000,2.000000
208950,2026-07-29T19:59:05.043+08:00,1020,2.040000,0,995,4,1003,2,-5.000000,4.000000,3.000000,2.000000
208951,2026-07-29T19:59:05.043+08:00,1021,2.042000,0,998,4,1000,2,-2.000000,4.000000,0.000000,2.000000
208952,2026-07-29T19:59:05.043+08:00,1022,2.044000,0,1001,4,995,2,1.000000,4.000000,-5.000000,2.000000
208953,2026-07-29T19:59:05.043+08:00,1023,2.046000,0,1002,4,995,2,2.000000,4.000000,-5.000000,2.000000
208954,2026-07-29T19:59:05.043+08:00,1024,2.048000,0,1002,4,1000,2,2.000000,4.000000,0.000000,2.000000
208955,2026-07-29T19:59:05.043+08:00,1025,2.050000,0,1001,4,1004,2,1.000000,4.000000,4.000000,2.000000
208956,2026-07-29T19:59:05.043+08:00,1026,2.052000,0,999,4,1004,2,-1.000000,4.000000,4.000000,2.000000
208957,2026-07-29T19:59:05.043+08:00,1027,2.054000,0,995,4,1000,2,-5.000000,4.000000,0.000000,2.000000
208958,2026-07-29T19:59:05.043+08:00,1028,2.056000,0,996,4,996,2,-4.000000,4.000000,-4.000000,2.000000
208959,2026-07-29T19:59:05.043+08:00,1029,2.058000,0,1001,4,995,2,1.000000,4.000000,-5.000000,2.000000
208960,2026-07-29T19:59:05.043+08:00,1030,2.060000,0,1004,4,998,2,4.000000,4.000000,-2.000000,2.000000
208961,2026-07-29T19:59:05.043+08:00,1031,2.062000,0,1002,4,1003,2,2.000000,4.000000,3.000000,2.000000
208962,2026-07-29T19:59:05.043+08:00,1032,2.064000,0,998,4,1005,2,-2.000000,4.000000,5.000000,2.000000
208963,2026-07-29T19:59:05.043+08:00,1033,2.066000,0,996,4,1002,2,-4.000000,4.000000,2.000000,2.000000
208964,2026-07-29T19:59:05.043+08:00,1034,2.068000,0,998,4,997,2,-2.000000,4.000000,-3.000000,2.000000
208965,2026-07-29T19:59:05.047+08:00,1035,2.070000,0,1000,4,994,2,0.000000,4.000000,-6.000000,2.000000
208966,2026-07-29T19:59:05.047+08:00,1036,2.072000,0,1000,4,997,2,0.000000,4.000000,-3.000000,2.000000
208967,2026-07-29T19:59:05.047+08:00,1037,2.074000,0,1000,4,1001,2,0.000000,4.000000,1.000000,2.000000
208968,2026-07-29T19:59:05.050+08:00,1038,2.076000,0,1001,4,1003,2,1.000000,4.000000,3.000000,2.000000
208969,2026-07-29T19:59:05.050+08:00,1039,2.078000,0,1001,4,1002,2,1.000000,4.000000,2.000000,2.000000
208970,2026-07-29T19:59:05.050+08:00,1040,2.080000,0,999,4,1000,2,-1.000000,4.000000,0.000000,2.000000
208971,2026-07-29T19:59:05.052+08:00,1041,2.082000,0,996,4,998,2,-4.000000,4.000000,-2.000000,2.000000
208972,2026-07-29T19:59:05.052+08:00,1042,2.084000,0,997,4,996,2,-3.000000,4.000000,-4.000000,2.000000
208973,2026-07-29T19:59:05.071+08:00,1043,2.086000,0,1001,4,997,2,1.000000,4.000000,-3.000000,2.000000
208974,2026-07-29T19:59:05.071+08:00,1044,2.088000,0,1004,4,1000,2,4.000000,4.000000,0.000000,2.000000
208975,2026-07-29T19:59:05.071+08:00,1045,2.090000,0,1003,4,1003,2,3.000000,4.000000,3.000000,2.000000
208976,2026-07-29T19:59:05.071+08:00,1046,2.092000,0,997,4,1002,2,-3.000000,4.000000,2.000000,2.000000
208977,2026-07-29T19:59:05.071+08:00,1047,2.094000,0,994,4,999,2,-6.000000,4.000000,-1.000000,2.000000
208978,2026-07-29T19:59:05.071+08:00,1048,2.096000,0,997,4,997,2,-3.000000,4.000000,-3.000000,2.000000
208979,2026-07-29T19:59:05.078+08:00,1049,2.098000,0,1003,4,998,2,3.000000,4.000000,-2.000000,2.000000
208980,2026-07-29T19:59:05.078+08:00,1050,2.100000,0,1003,4,1000,2,3.000000,4.000000,0.000000,2.000000
208981,2026-07-29T19:59:05.091+08:00,1051,2.102000,0,1000,4,1000,2,0.000000,4.000000,0.000000,2.000000
208982,2026-07-29T19:59:05.091+08:00,1052,2.104000,0,998,4,1000,2,-2.000000,4.000000,0.000000,2.000000
208983,2026-07-29T19:59:05.091+08:00,1053,2.106000,0,998,4,999,2,-2.000000,4.000000,-1.000000,2.000000
208984,2026-07-29T19:59:05.110+08:00,1054,2.108000,0,1000,4,1000,2,0.000000,4.000000,0.000000,2.000000
208985,2026-07-29T19:59:05.110+08:00,1055,2.110000,0,998,4,1001,2,-2.000000,4.000000,1.000000,2.000000
208986,2026-07-29T19:59:05.110+08:00,1056,2.112000,0,998,4,1001,2,-2.000000,4.000000,1.000000,2.000000
208987,2026-07-29T19:59:05.110+08:00,1057,2.114000,0,1000,4,999,2,0.000000,4.000000,-1.000000,2.000000
208988,2026-07-29T19:59:05.110+08:00,1058,2.116000,0,1004,4,996,2,4.000000,4.000000,-4.000000,2.000000
208989,2026-07-29T19:59:05.110+08:00,1059,2.118000,0,1003,4,995,2,3.000000,4.000000,-5.000000,2.000000
208990,2026-07-29T19:59:05.110+08:00,1060,2.120000,0,998,4,1000,2,-2.000000,4.000000,0.000000,2.000000
208991,2026-07-29T19:59:05.110+08:00,1061,2.122000,0,992,4,1006,2,-8.000000,4.000000,6.000000,2.000000
208992,2026-07-29T19:59:05.110+08:00,1062,2.124000,0,994,4,1005,2,-6.000000,4.000000,5.000000,2.000000
208993,2026-07-29T19:59:05.110+08:00,1063,2.126000,0,1002,4,998,2,2.000000,4.000000,-2.000000,2.000000
208994,2026-07-29T19:59:05.110+08:00,1064,2.128000,0,1008,4,993,2,8.000000,4.000000,-7.000000,2.000000
208995,2026-07-29T19:59:05.110+08:00,1065,2.130000,0,1006,4,995,2,6.000000,4.000000,-5.000000,2.000000
208996,2026-07-29T19:59:05.110+08:00,1066,2.132000,0,998,4,1002,2,-2.000000,4.000000,2.000000,2.000000
208997,2026-07-29T19:59:05.110+08:00,1067,2.134000,0,992,4,1005,2,-8.000000,4.000000,5.000000,2.000000
208998,2026-07-29T19:59:05.110+08:00,1068,2.136000,0,993,4,1003,2,-7.000000,4.000000,3.000000,2.000000
208999,2026-07-29T19:59:05.110+08:00,1069,2.138000,0,1000,4,999,2,0.000000,4.000000,-1.000000,2.000000
209000,2026-07-29T19:59:05.110+08:00,1070,2.140000,0,1005,4,996,2,5.000000,4.000000,-4.000000,2.000000
209001,2026-07-29T19:59:05.113+08:00,1071,2.142000,0,1005,4,995,2,5.000000,4.000000,-5.000000,2.000000
209002,2026-07-29T19:59:05.113+08:00,1072,2.144000,0,1001,4,999,2,1.000000,4.000000,-1.000000,2.000000
209003,2026-07-29T19:59:05.128+08:00,1073,2.146000,0,996,4,1003,2,-4.000000,4.000000,3.000000,2.000000
209004,2026-07-29T19:59:05.128+08:00,1074,2.148000,0,995,4,1005,2,-5.000000,4.000000,5.000000,2.000000
209005,2026-07-29T19:59:05.128+08:00,1075,2.150000,0,998,4,1001,2,-2.000000,4.000000,1.000000,2.000000
209006,2026-07-29T19:59:05.132+08:00,1076,2.152000,0,1001,4,996,2,1.000000,4.000000,-4.000000,2.000000
209007,2026-07-29T19:59:05.132+08:00,1077,2.154000,0,1002,4,994,2,2.000000,4.000000,-6.000000,2.000000
209008,2026-07-29T19:59:05.132+08:00,1078,2.156000,0,1000,4,997,2,0.000000,4.000000,-3.000000,2.000000
209009,2026-07-29T19:59:05.132+08:00,1079,2.158000,0,999,4,1001,2,-1.000000,4.000000,1.000000,2.000000
209010,2026-07-29T19:59:05.155+08:00,1080,2.160000,0,1000,4,1004,2,0.000000,4.000000,4.000000,2.000000
209011,2026-07-29T19:59:05.155+08:00,1081,2.162000,0,1000,4,1002,2,0.000000,4.000000,2.000000,2.000000
209012,2026-07-29T19:59:05.155+08:00,1082,2.164000,0,998,4,998,2,-2.000000,4.000000,-2.000000,2.000000
209013,2026-07-29T19:59:05.155+08:00,1083,2.166000,0,997,4,996,2,-3.000000,4.000000,-4.000000,2.000000
209014,2026-07-29T19:59:05.155+08:00,1084,2.168000,0,999,4,998,2,-1.000000,4.000000,-2.000000,2.000000
209015,2026-07-29T19:59:05.155+08:00,1085,2.170000,0,1002,4,1001,2,2.000000,4.000000,1.000000,2.000000
209016,2026-07-29T19:59:05.155+08:00,1086,2.172000,0,1002,4,1001,2,2.000000,4.000000,1.000000,2.000000
209017,2026-07-29T19:59:05.155+08:00,1087,2.174000,0,999,4,999,2,-1.000000,4.000000,-1.000000,2.000000
209018,2026-07-29T19:59:05.155+08:00,1088,2.176000,0,997,4,999,2,-3.000000,4.000000,-1.000000,2.000000
209019,2026-07-29T19:59:05.155+08:00,1089,2.178000,0,998,4,1001,2,-2.000000,4.000000,1.000000,2.000000
209020,2026-07-29T19:59:05.155+08:00,1090,2.180000,0,999,4,1002,2,-1.000000,4.000000,2.000000,2.000000
209021,2026-07-29T19:59:05.155+08:00,1091,2.182000,0,1000,4,999,2,0.000000,4.000000,-1.000000,2.000000
209022,2026-07-29T19:59:05.155+08:00,1092,2.184000,0,1001,4,996,2,1.000000,4.000000,-4.000000,2.000000
209023,2026-07-29T19:59:05.155+08:00,1093,2.186000,0,1002,4,997,2,2.000000,4.000000,-3.000000,2.000000
209024,2026-07-29T19:59:05.171+08:00,1094,2.188000,0,1000,4,1001,2,0.000000,4.000000,1.000000,2.000000
209025,2026-07-29T19:59:05.171+08:00,1095,2.190000,0,996,4,1003,2,-4.000000,4.000000,3.000000,2.000000
209026,2026-07-29T19:59:05.171+08:00,1096,2.192000,0,995,4,1002,2,-5.000000,4.000000,2.000000,2.000000
209027,2026-07-29T19:59:05.171+08:00,1097,2.194000,0,1000,4,998,2,0.000000,4.000000,-2.000000,2.000000
209028,2026-07-29T19:59:05.171+08:00,1098,2.196000,0,1006,4,997,2,6.000000,4.000000,-3.000000,2.000000
209029,2026-07-29T19:59:05.171+08:00,1099,2.198000,0,1005,4,998,2,5.000000,4.000000,-2.000000,2.000000
209030,2026-07-29T19:59:05.171+08:00,1100,2.200000,0,997,4,1000,2,-3.000000,4.000000,0.000000,2.000000
209031,2026-07-29T19:59:05.172+08:00,1101,2.202000,0,991,4,1000,2,-9.000000,4.000000,0.000000,2.000000
209032,2026-07-29T19:59:05.172+08:00,1102,2.204000,0,995,4,1000,2,-5.000000,4.000000,0.000000,2.000000
209033,2026-07-29T19:59:05.183+08:00,1103,2.206000,0,1005,4,1000,2,5.000000,4.000000,0.000000,2.000000
209034,2026-07-29T19:59:05.183+08:00,1104,2.208000,0,1008,4,1000,2,8.000000,4.000000,0.000000,2.000000
209035,2026-07-29T19:59:05.183+08:00,1105,2.210000,0,1000,4,1000,2,0.000000,4.000000,0.000000,2.000000
209036,2026-07-29T19:59:05.185+08:00,1106,2.212000,0,992,4,1000,2,-8.000000,4.000000,0.000000,2.000000
209037,2026-07-29T19:59:05.185+08:00,1107,2.214000,0,994,4,998,2,-6.000000,4.000000,-2.000000,2.000000
209038,2026-07-29T19:59:05.185+08:00,1108,2.216000,0,1003,4,997,2,3.000000,4.000000,-3.000000,2.000000
209039,2026-07-29T19:59:05.195+08:00,1109,2.218000,0,1006,4,999,2,6.000000,4.000000,-1.000000,2.000000
209040,2026-07-29T19:59:05.195+08:00,1110,2.220000,0,1000,4,1003,2,0.000000,4.000000,3.000000,2.000000
209041,2026-07-29T19:59:05.219+08:00,1111,2.222000,0,995,4,1003,2,-5.000000,4.000000,3.000000,2.000000
209042,2026-07-29T19:59:05.219+08:00,1112,2.224000,0,997,4,1000,2,-3.000000,4.000000,0.000000,2.000000
209043,2026-07-29T19:59:05.219+08:00,1113,2.226000,0,1002,4,996,2,2.000000,4.000000,-4.000000,2.000000
209044,2026-07-29T19:59:05.219+08:00,1114,2.228000,0,1003,4,997,2,3.000000,4.000000,-3.000000,2.000000
209045,2026-07-29T19:59:05.219+08:00,1115,2.230000,0,999,4,1000,2,-1.000000,4.000000,0.000000,2.000000
209046,2026-07-29T19:59:05.219+08:00,1116,2.232000,0,997,4,1001,2,-3.000000,4.000000,1.000000,2.000000
209047,2026-07-29T19:59:05.219+08:00,1117,2.234000,0,999,4,1000,2,-1.000000,4.000000,0.000000,2.000000
209048,2026-07-29T19:59:05.240+08:00,1118,2.236000,0,1000,4,1000,2,0.000000,4.000000,0.000000,2.000000
209049,2026-07-29T19:59:05.240+08:00,1119,2.238000,0,1000,4,1000,2,0.000000,4.000000,0.000000,2.000000
209050,2026-07-29T19:59:05.240+08:00,1120,2.240000,0,1000,4,999,2,0.000000,4.000000,-1.000000,2.000000
209051,2026-07-29T19:59:05.240+08:00,1121,2.242000,0,999,4,998,2,-1.000000,4.000000,-2.000000,2.000000
209052,2026-07-29T19:59:05.240+08:00,1122,2.244000,0,999,4,998,2,-1.000000,4.000000,-2.000000,2.000000
209053,2026-07-29T19:59:05.240+08:00,1123,2.246000,0,1000,4,1000,2,0.000000,4.000000,0.000000,2.000000
209054,2026-07-29T19:59:05.240+08:00,1124,2.248000,0,1002,4,1001,2,2.000000,4.000000,1.000000,2.000000
209055,2026-07-29T19:59:05.240+08:00,1125,2.250000,0,1001,4,1001,2,1.000000,4.000000,1.000000,2.000000
209056,2026-07-29T19:59:05.240+08:00,1126,2.252000,0,997,4,1000,2,-3.000000,4.000000,0.000000,2.000000
209057,2026-07-29T19:59:05.240+08:00,1127,2.254000,0,995,4,999,2,-5.000000,4.000000,-1.000000,2.000000
209058,2026-07-29T19:59:05.240+08:00,1128,2.256000,0,999,4,999,2,-1.000000,4.000000,-1.000000,2.000000
209059,2026-07-29T19:59:05.240+08:00,1129,2.258000,0,1005,4,999,2,5.000000,4.000000,-1.000000,2.000000
209060,2026-07-29T19:59:05.240+08:00,1130,2.260000,0,1004,4,998,2,4.000000,4.000000,-2.000000,2.000000
209061,2026-07-29T19:59:05.240+08:00,1131,2.262000,0,999,4,998,2,-1.000000,4.000000,-2.000000,2.000000
209062,2026-07-29T19:59:05.240+08:00,1132,2.264000,0,995,4,1001,2,-5.000000,4.000000,1.000000,2.000000
209063,2026-07-29T19:59:05.242+08:00,1133,2.266000,0,996,4,1004,2,-4.000000,4.000000,4.000000,2.000000
209064,2026-07-29T19:59:05.242+08:00,1134,2.268000,0,999,4,1001,2,-1.000000,4.000000,1.000000,2.000000
209065,2026-07-29T19:59:05.242+08:00,1135,2.270000,0,1002,4,995,2,2.000000,4.000000,-5.000000,2.000000
209066,2026-07-29T19:59:05.245+08:00,1136,2.272000,0,1003,4,994,2,3.000000,4.000000,-6.000000,2.000000
209067,2026-07-29T19:59:05.245+08:00,1137,2.274000,0,1003,4,999,2,3.000000,4.000000,-1.000000,2.000000
209068,2026-07-29T19:59:05.245+08:00,1138,2.276000,0,1000,4,1005,2,0.000000,4.000000,5.000000,2.000000
209069,2026-07-29T19:59:05.248+08:00,1139,2.278000,0,994,4,1005,2,-6.000000,4.000000,5.000000,2.000000
209070,2026-07-29T19:59:05.262+08:00,1140,2.280000,0,993,4,1000,2,-7.000000,4.000000,0.000000,2.000000
209071,2026-07-29T19:59:05.262+08:00,1141,2.282000,0,998,4,996,2,-2.000000,4.000000,-4.000000,2.000000
209072,2026-07-29T19:59:05.262+08:00,1142,2.284000,0,1006,4,995,2,6.000000,4.000000,-5.000000,2.000000
209073,2026-07-29T19:59:05.262+08:00,1143,2.286000,0,1006,4,997,2,6.000000,4.000000,-3.000000,2.000000
209074,2026-07-29T19:59:05.262+08:00,1144,2.288000,0,1000,4,1000,2,0.000000,4.000000,0.000000,2.000000
209075,2026-07-29T19:59:05.262+08:00,1145,2.290000,0,994,4,1004,2,-6.000000,4.000000,4.000000,2.000000
209076,2026-07-29T19:59:05.266+08:00,1146,2.292000,0,995,4,1005,2,-5.000000,4.000000,5.000000,2.000000
209077,2026-07-29T19:59:05.266+08:00,1147,2.294000,0,1000,4,1001,2,0.000000,4.000000,1.000000,2.000000
209078,2026-07-29T19:59:05.272+08:00,1148,2.296000,0,1003,4,995,2,3.000000,4.000000,-5.000000,2.000000
209079,2026-07-29T19:59:05.290+08:00,1149,2.298000,0,1000,4,993,2,0.000000,4.000000,-7.000000,2.000000
209080,2026-07-29T19:59:05.290+08:00,1150,2.300000,0,997,4,997,2,-3.000000,4.000000,-3.000000,2.000000
209081,2026-07-29T19:59:05.290+08:00,1151,2.302000,0,1000,4,1004,2,0.000000,4.000000,4.000000,2.000000
209082,2026-07-29T19:59:05.313+08:00,1152,2.304000,0,1003,4,1006,2,3.000000,4.000000,6.000000,2.000000
209083,2026-07-29T19:59:05.313+08:00,1153,2.306000,0,1001,4,1002,2,1.000000,4.000000,2.000000,2.000000
209084,2026-07-29T19:59:05.313+08:00,1154,2.308000,0,995,4,996,2,-5.000000,4.000000,-4.000000,2.000000
209085,2026-07-29T19:59:05.313+08:00,1155,2.310000,0,995,4,995,2,-5.000000,4.000000,-5.000000,2.000000
209086,2026-07-29T19:59:05.313+08:00,1156,2.312000,0,1001,4,998,2,1.000000,4.000000,-2.000000,2.000000
209087,2026-07-29T19:59:05.313+08:00,1157,2.314000,0,1005,4,1001,2,5.000000,4.000000,1.000000,2.000000
209088,2026-07-29T19:59:05.313+08:00,1158,2.316000,0,1002,4,1000,2,2.000000,4.000000,0.000000,2.000000
209089,2026-07-29T19:59:05.313+08:00,1159,2.318000,0,996,4,999,2,-4.000000,4.000000,-1.000000,2.000000
209090,2026-07-29T19:59:05.313+08:00,1160,2.320000,0,996,4,1001,2,-4.000000,4.000000,1.000000,2.000000
209091,2026-07-29T19:59:05.313+08:00,1161,2.322000,0,1001,4,1003,2,1.000000,4.000000,3.000000,2.000000
209092,2026-07-29T19:59:05.313+08:00,1162,2.324000,0,1003,4,1002,2,3.000000,4.000000,2.000000,2.000000
209093,2026-07-29T19:59:05.313+08:00,1163,2.326000,0,999,4,995,2,-1.000000,4.000000,-5.000000,2.000000
209094,2026-07-29T19:59:05.313+08:00,1164,2.328000,0,996,4,992,2,-4.000000,4.000000,-8.000000,2.000000
209095,2026-07-29T19:59:05.313+08:00,1165,2.330000,0,999,4,998,2,-1.000000,4.000000,-2.000000,2.000000
209096,2026-07-29T19:59:05.313+08:00,1166,2.332000,0,1003,4,1006,2,3.000000,4.000000,6.000000,2.000000
209097,2026-07-29T19:59:05.313+08:00,1167,2.334000,0,1002,4,1007,2,2.000000,4.000000,7.000000,2.000000
209098,2026-07-29T19:59:05.313+08:00,1168,2.336000,0,998,4,1000,2,-2.000000,4.000000,0.000000,2.000000
209099,2026-07-29T19:59:05.313+08:00,1169,2.338000,0,996,4,994,2,-4.000000,4.000000,-6.000000,2.000000
209100,2026-07-29T19:59:05.316+08:00,1170,2.340000,0,999,4,993,2,-1.000000,4.000000,-7.000000,2.000000
209101,2026-07-29T19:59:05.316+08:00,1171,2.342000,0,1002,4,997,2,2.000000,4.000000,-3.000000,2.000000
209102,2026-07-29T19:59:05.316+08:00,1172,2.344000,0,1001,4,1002,2,1.000000,4.000000,2.000000,2.000000
