frame_index,host_receive_time,recording_sample_index,recording_elapsed_s,button_label,Channel1_raw,Channel2_raw,Channel 3_raw,Channel 4_raw,Channel1_display,Channel2_display,Channel 3_display,Channel 4_display
104792,2026-07-29T20:11:51.185+08:00,0,0.000000,0,999,4,999,4,-1.000000,4.000000,-1.000000,4.000000
104793,2026-07-29T20:11:51.192+08:00,1,0.002000,0,1003,4,999,4,3.000000,4.000000,-1.000000,4.000000
104794,2026-07-29T20:11:51.192+08:00,2,0.004000,0,1004,4,999,4,4.000000,4.000000,-1.000000,4.000000
104795,2026-07-29T20:11:51.192+08:00,3,0.006000,0,1001,4,999,4,1.000000,4.000000,-1.000000,4.000000
104796,2026-07-29T20:11:51.192+08:00,4,0.008000,0,997,4,1000,2,-3.000000,4.000000,0.000000,2.000000
104797,2026-07-29T20:11:51.192+08:00,5,0.010000,0,995,4,1003,4,-5.000000,4.000000,3.000000,4.000000
104798,2026-07-29T20:11:51.192+08:00,6,0.012000,0,997,4,1003,2,-3.000000,4.000000,3.000000,2.000000
104799,2026-07-29T20:11:51.204+08:00,7,0.014000,0,1001,4,998,2,1.000000,4.000000,-2.000000,2.000000
104800,2026-07-29T20:11:51.204+08:00,8,0.016000,0,1004,4,994,4,4.000000,4.000000,-6.000000,4.000000
104801,2026-07-29T20:11:51.204+08:00,9,0.018000,0,1002,4,996,2,2.000000,4.000000,-4.000000,2.000000
104802,2026-07-29T20:11:51.204+08:00,10,0.020000,0,998,4,1003,4,-2.000000,4.000000,3.000000,4.000000
104803,2026-07-29T20:11:51.204+08:00,11,0.022000,0,997,4,1006,4,-3.000000,4.000000,6.000000,4.000000
104804,2026-07-29T20:11:51.204+08:00,12,0.024000,0,997,4,1002,4,-3.000000,4.000000,2.000000,4.000000
104805,2026-07-29T20:11:51.212+08:00,13,0.026000,0,998,4,996,4,-2.000000,4.000000,-4.000000,4.000000
104806,2026-07-29T20:11:51.212+08:00,14,0.028000,0,1000,4,995,4,0.000000,4.000000,-5.000000,4.000000
104807,2026-07-29T20:11:51.215+08:00,15,0.030000,0,1002,4,999,4,2.000000,4.000000,-1.000000,4.000000
104808,2026-07-29T20:11:51.233+08:00,16,0.032000,0,1003,4,1002,4,3.000000,4.000000,2.000000,4.000000
104809,2026-07-29T20:11:51.233+08:00,17,0.034000,0,1000,4,1001,4,0.000000,4.000000,1.000000,4.000000
104810,2026-07-29T20:11:51.233+08:00,18,0.036000,0,996,4,998,2,-4.000000,4.000000,-2.000000,2.000000
104811,2026-07-29T20:11:51.233+08:00,19,0.038000,0,996,4,999,2,-4.000000,4.000000,-1.000000,2.000000
104812,2026-07-29T20:11:51.233+08:00,20,0.040000,0,999,4,1002,2,-1.000000,4.000000,2.000000,2.000000
104813,2026-07-29T20:11:51.233+08:00,21,0.042000,0,1002,4,1001,2,2.000000,4.000000,1.000000,2.000000
104814,2026-07-29T20:11:51.233+08:00,22,0.044000,0,1002,4,997,2,2.000000,4.000000,-3.000000,2.000000
104815,2026-07-29T20:11:51.233+08:00,23,0.046000,0,1000,4,996,2,0.000000,4.000000,-4.000000,2.000000
104816,2026-07-29T20:11:51.233+08:00,24,0.048000,0,998,4,999,2,-2.000000,4.000000,-1.000000,2.000000
104817,2026-07-29T20:11:51.233+08:00,25,0.050000,0,998,4,1003,2,-2.000000,4.000000,3.000000,2.000000
104818,2026-07-29T20:11:51.233+08:00,26,0.052000,0,999,4,1002,2,-1.000000,4.000000,2.000000,2.000000
104819,2026-07-29T20:11:51.233+08:00,27,0.054000,0,999,4,1000,2,-1.000000,4.000000,0.000000,2.000000
104820,2026-07-29T20:11:51.260+08:00,28,0.056000,0,999,4,998,2,-1.000000,4.000000,-2.000000,2.000000
104821,2026-07-29T20:11:51.260+08:00,29,0.058000,0,1000,4,997,2,0.000000,4.000000,-3.000000,2.000000
104822,2026-07-29T20:11:51.260+08:00,30,0.060000,0,1001,4,996,2,1.000000,4.000000,-4.000000,2.000000
104823,2026-07-29T20:11:51.260+08:00,31,0.062000,0,1001,4,999,2,1.000000,4.000000,-1.000000,2.000000
104824,2026-07-29T20:11:51.260+08:00,32,0.064000,0,999,4,1004,2,-1.000000,4.000000,4.000000,2.000000
104825,2026-07-29T20:11:51.260+08:00,33,0.066000,0,996,4,1004,2,-4.000000,4.000000,4.000000,2.000000
104826,2026-07-29T20:11:51.260+08:00,34,0.068000,0,998,4,999,2,-2.000000,4.000000,-1.000000,2.000000
104827,2026-07-29T20:11:51.260+08:00,35,0.070000,0,1002,4,994,2,2.000000,4.000000,-6.000000,2.000000
104828,2026-07-29T20:11:51.260+08:00,36,0.072000,0,1002,4,996,4,2.000000,4.000000,-4.000000,4.000000
104829,2026-07-29T20:11:51.260+08:00,37,0.074000,0,999,4,1002,4,-1.000000,4.000000,2.000000,4.000000
104830,2026-07-29T20:11:51.260+08:00,38,0.076000,0,997,4,1004,4,-3.000000,4.000000,4.000000,4.000000
104831,2026-07-29T20:11:51.260+08:00,39,0.078000,0,998,4,1001,4,-2.000000,4.000000,1.000000,4.000000
104832,2026-07-29T20:11:51.263+08:00,40,0.080000,0,1001,4,997,4,1.000000,4.000000,-3.000000,4.000000
104833,2026-07-29T20:11:51.263+08:00,41,0.082000,0,1002,4,997,4,2.000000,4.000000,-3.000000,4.000000
104834,2026-07-29T20:11:51.263+08:00,42,0.084000,0,999,4,999,4,-1.000000,4.000000,-1.000000,4.000000
104835,2026-07-29T20:11:51.266+08:00,43,0.086000,0,998,4,1002,4,-2.000000,4.000000,2.000000,4.000000
104836,2026-07-29T20:11:51.266+08:00,44,0.088000,0,999,4,1001,4,-1.000000,4.000000,1.000000,4.000000
104837,2026-07-29T20:11:51.274+08:00,45,0.090000,0,1000,4,998,4,0.000000,4.000000,-2.000000,4.000000
104838,2026-07-29T20:11:51.279+08:00,46,0.092000,0,1000,4,996,4,0.000000,4.000000,-4.000000,4.000000
104839,2026-07-29T20:11:51.279+08:00,47,0.094000,0,1000,4,997,4,0.000000,4.000000,-3.000000,4.000000
104840,2026-07-29T20:11:51.279+08:00,48,0.096000,0,1001,4,1002,4,1.000000,4.000000,2.000000,4.000000
104841,2026-07-29T20:11:51.299+08:00,49,0.098000,0,1001,4,1005,4,1.000000,4.000000,5.000000,4.000000
104842,2026-07-29T20:11:51.299+08:00,50,0.100000,0,998,4,1002,4,-2.000000,4.000000,2.000000,4.000000
104843,2026-07-29T20:11:51.299+08:00,51,0.102000,0,995,4,995,4,-5.000000,4.000000,-5.000000,4.000000
104844,2026-07-29T20:11:51.325+08:00,52,0.104000,0,996,4,993,4,-4.000000,4.000000,-7.000000,4.000000
104845,2026-07-29T20:11:51.325+08:00,53,0.106000,0,1002,4,998,4,2.000000,4.000000,-2.000000,4.000000
104846,2026-07-29T20:11:51.325+08:00,54,0.108000,0,1007,4,1004,4,7.000000,4.000000,4.000000,4.000000
104847,2026-07-29T20:11:51.325+08:00,55,0.110000,0,1003,4,1005,4,3.000000,4.000000,5.000000,4.000000
104848,2026-07-29T20:11:51.325+08:00,56,0.112000,0,996,2,1000,4,-4.000000,2.000000,0.000000,4.000000
104849,2026-07-29T20:11:51.325+08:00,57,0.114000,0,992,4,996,4,-8.000000,4.000000,-4.000000,4.000000
104850,2026-07-29T20:11:51.325+08:00,58,0.116000,0,995,2,997,4,-5.000000,2.000000,-3.000000,4.000000
104851,2026-07-29T20:11:51.325+08:00,59,0.118000,0,1002,2,1000,4,2.000000,2.000000,0.000000,4.000000
104852,2026-07-29T20:11:51.325+08:00,60,0.120000,0,1007,2,1000,4,7.000000,2.000000,0.000000,4.000000
104853,2026-07-29T20:11:51.325+08:00,61,0.122000,0,1007,2,998,4,7.000000,2.000000,-2.000000,4.000000
104854,2026-07-29T20:11:51.325+08:00,62,0.124000,0,1001,2,999,4,1.000000,2.000000,-1.000000,4.000000
104855,2026-07-29T20:11:51.325+08:00,63,0.126000,0,993,2,1003,2,-7.000000,2.000000,3.000000,2.000000
104856,2026-07-29T20:11:51.326+08:00,64,0.128000,0,989,4,1004,4,-11.000000,4.000000,4.000000,4.000000
104857,2026-07-29T20:11:51.326+08:00,65,0.130000,0,996,2,999,2,-4.000000,2.000000,-1.000000,2.000000
104858,2026-07-29T20:11:51.326+08:00,66,0.132000,0,1006,4,995,2,6.000000,4.000000,-5.000000,2.000000
104859,2026-07-29T20:11:51.326+08:00,67,0.134000,0,1009,4,995,2,9.000000,4.000000,-5.000000,2.000000
104860,2026-07-29T20:11:51.326+08:00,68,0.136000,0,1002,2,1000,2,2.000000,2.000000,0.000000,2.000000
104861,2026-07-29T20:11:51.326+08:00,69,0.138000,0,994,4,1004,2,-6.000000,4.000000,4.000000,2.000000
104862,2026-07-29T20:11:51.326+08:00,70,0.140000,0,994,2,1003,2,-6.000000,2.000000,3.000000,2.000000
104863,2026-07-29T20:11:51.326+08:00,71,0.142000,0,998,2,1000,2,-2.000000,2.000000,0.000000,2.000000
104864,2026-07-29T20:11:51.326+08:00,72,0.144000,0,1001,2,997,2,1.000000,2.000000,-3.000000,2.000000
104865,2026-07-29T20:11:51.326+08:00,73,0.146000,0,1000,2,997,2,0.000000,2.000000,-3.000000,2.000000
104866,2026-07-29T20:11:51.326+08:00,74,0.148000,0,1000,2,998,2,0.000000,2.000000,-2.000000,2.000000
104867,2026-07-29T20:11:51.354+08:00,75,0.150000,0,1001,2,1000,2,1.000000,2.000000,0.000000,2.000000
104868,2026-07-29T20:11:51.354+08:00,76,0.152000,0,1001,2,1001,2,1.000000,2.000000,1.000000,2.000000
104869,2026-07-29T20:11:51.354+08:00,77,0.154000,0,1000,2,1000,2,0.000000,2.000000,0.000000,2.000000
104870,2026-07-29T20:11:51.354+08:00,78,0.156000,0,998,2,999,2,-2.000000,2.000000,-1.000000,2.000000
104871,2026-07-29T20:11:51.354+08:00,79,0.158000,0,997,2,1000,2,-3.000000,2.000000,0.000000,2.000000
104872,2026-07-29T20:11:51.354+08:00,80,0.160000,0,997,2,1001,2,-3.000000,2.000000,1.000000,2.000000
104873,2026-07-29T20:11:51.354+08:00,81,0.162000,0,999,2,999,2,-1.000000,2.000000,-1.000000,2.000000
104874,2026-07-29T20:11:51.354+08:00,82,0.164000,0,1003,2,995,2,3.000000,2.000000,-5.000000,2.000000
104875,2026-07-29T20:11:51.354+08:00,83,0.166000,0,1006,2,996,2,6.000000,2.000000,-4.000000,2.000000
104876,2026-07-29T20:11:51.354+08:00,84,0.168000,0,1002,2,1001,2,2.000000,2.000000,1.000000,2.000000
104877,2026-07-29T20:11:51.354+08:00,85,0.170000,0,994,2,1006,2,-6.000000,2.000000,6.000000,2.000000
104878,2026-07-29T20:11:51.354+08:00,86,0.172000,0,992,2,1004,2,-8.000000,2.000000,4.000000,2.000000
104879,2026-07-29T20:11:51.354+08:00,87,0.174000,0,998,2,998,2,-2.000000,2.000000,-2.000000,2.000000
104880,2026-07-29T20:11:51.356+08:00,88,0.176000,0,1004,4,993,2,4.000000,4.000000,-7.000000,2.000000
104881,2026-07-29T20:11:51.356+08:00,89,0.178000,0,1005,4,995,2,5.000000,4.000000,-5.000000,2.000000
104882,2026-07-29T20:11:51.365+08:00,90,0.180000,0,1001,4,1000,2,1.000000,4.000000,0.000000,2.000000
104883,2026-07-29T20:11:51.365+08:00,91,0.182000,0,997,4,1004,2,-3.000000,4.000000,4.000000,2.000000
104884,2026-07-29T20:11:51.365+08:00,92,0.184000,0,995,4,1005,2,-5.000000,4.000000,5.000000,2.000000
104885,2026-07-29T20:11:51.368+08:00,93,0.186000,0,997,4,1002,2,-3.000000,4.000000,2.000000,2.000000
104886,2026-07-29T20:11:51.368+08:00,94,0.188000,0,1001,4,997,2,1.000000,4.000000,-3.000000,2.000000
104887,2026-07-29T20:11:51.368+08:00,95,0.190000,0,1002,4,994,2,2.000000,4.000000,-6.000000,2.000000
104888,2026-07-29T20:11:51.369+08:00,96,0.192000,0,1002,4,995,2,2.000000,4.000000,-5.000000,2.000000
104889,2026-07-29T20:11:51.385+08:00,97,0.194000,0,1000,2,1001,2,0.000000,2.000000,1.000000,2.000000
104890,2026-07-29T20:11:51.385+08:00,98,0.196000,0,999,2,1006,2,-1.000000,2.000000,6.000000,2.000000
104891,2026-07-29T20:11:51.385+08:00,99,0.198000,0,997,2,1005,2,-3.000000,2.000000,5.000000,2.000000
104892,2026-07-29T20:11:51.386+08:00,100,0.200000,0,995,2,999,2,-5.000000,2.000000,-1.000000,2.000000
104893,2026-07-29T20:11:51.386+08:00,101,0.202000,0,999,2,993,2,-1.000000,2.000000,-7.000000,2.000000
104894,2026-07-29T20:11:51.386+08:00,102,0.204000,0,1005,2,994,2,5.000000,2.000000,-6.000000,2.000000
104895,2026-07-29T20:11:51.386+08:00,103,0.206000,0,1007,2,1001,2,7.000000,2.000000,1.000000,2.000000
104896,2026-07-29T20:11:51.386+08:00,104,0.208000,0,1000,2,1006,4,0.000000,2.000000,6.000000,4.000000
104897,2026-07-29T20:11:51.399+08:00,105,0.210000,0,991,4,1003,4,-9.000000,4.000000,3.000000,4.000000
104898,2026-07-29T20:11:51.399+08:00,106,0.212000,0,992,4,997,4,-8.000000,4.000000,-3.000000,4.000000
104899,2026-07-29T20:11:51.399+08:00,107,0.214000,0,1002,4,995,4,2.000000,4.000000,-5.000000,4.000000
104900,2026-07-29T20:11:51.399+08:00,108,0.216000,0,1007,4,998,4,7.000000,4.000000,-2.000000,4.000000
104901,2026-07-29T20:11:51.399+08:00,109,0.218000,0,1003,4,1002,4,3.000000,4.000000,2.000000,4.000000
104902,2026-07-29T20:11:51.399+08:00,110,0.220000,0,996,4,1002,4,-4.000000,4.000000,2.000000,4.000000
104903,2026-07-29T20:11:51.418+08:00,111,0.222000,0,996,4,1000,4,-4.000000,4.000000,0.000000,4.000000
104904,2026-07-29T20:11:51.418+08:00,112,0.224000,0,999,4,998,4,-1.000000,4.000000,-2.000000,4.000000
104905,2026-07-29T20:11:51.418+08:00,113,0.226000,0,1000,4,999,4,0.000000,4.000000,-1.000000,4.000000
104906,2026-07-29T20:11:51.418+08:00,114,0.228000,0,998,4,1000,4,-2.000000,4.000000,0.000000,4.000000
104907,2026-07-29T20:11:51.418+08:00,115,0.230000,0,999,4,1001,4,-1.000000,4.000000,1.000000,4.000000
104908,2026-07-29T20:11:51.418+08:00,116,0.232000,0,1003,4,1000,4,3.000000,4.000000,0.000000,4.000000
104909,2026-07-29T20:11:51.418+08:00,117,0.234000,0,1004,4,997,4,4.000000,4.000000,-3.000000,4.000000
104910,2026-07-29T20:11:51.418+08:00,118,0.236000,0,998,4,997,4,-2.000000,4.000000,-3.000000,4.000000
104911,2026-07-29T20:11:51.418+08:00,119,0.238000,0,993,4,1000,4,-7.000000,4.000000,0.000000,4.000000
104912,2026-07-29T20:11:51.446+08:00,120,0.240000,0,996,4,1003,4,-4.000000,4.000000,3.000000,4.000000
104913,2026-07-29T20:11:51.446+08:00,121,0.242000,0,1004,4,1002,4,4.000000,4.000000,2.000000,4.000000
104914,2026-07-29T20:11:51.446+08:00,122,0.244000,0,1006,4,998,4,6.000000,4.000000,-2.000000,4.000000
104915,2026-07-29T20:11:51.446+08:00,123,0.246000,0,999,4,995,4,-1.000000,4.000000,-5.000000,4.000000
104916,2026-07-29T20:11:51.446+08:00,124,0.248000,0,993,4,997,4,-7.000000,4.000000,-3.000000,4.000000
104917,2026-07-29T20:11:51.446+08:00,125,0.250000,0,997,4,1002,4,-3.000000,4.000000,2.000000,4.000000
104918,2026-07-29T20:11:51.446+08:00,126,0.252000,0,1003,4,1004,4,3.000000,4.000000,4.000000,4.000000
104919,2026-07-29T20:11:51.446+08:00,127,0.254000,0,1004,4,1002,4,4.000000,4.000000,2.000000,4.000000
104920,2026-07-29T20:11:51.446+08:00,128,0.256000,0,998,4,998,4,-2.000000,4.000000,-2.000000,4.000000
104921,2026-07-29T20:11:51.446+08:00,129,0.258000,0,995,4,996,4,-5.000000,4.000000,-4.000000,4.000000
104922,2026-07-29T20:11:51.446+08:00,130,0.260000,0,999,4,997,4,-1.000000,4.000000,-3.000000,4.000000
104923,2026-07-29T20:11:51.446+08:00,131,0.262000,0,1004,4,1000,4,4.000000,4.000000,0.000000,4.000000
104924,2026-07-29T20:11:51.446+08:00,132,0.264000,0,1002,4,1002,4,2.000000,4.000000,2.000000,4.000000
104925,2026-07-29T20:11:51.446+08:00,133,0.266000,0,997,4,1001,4,-3.000000,4.000000,1.000000,4.000000
104926,2026-07-29T20:11:51.446+08:00,134,0.268000,0,996,4,998,4,-4.000000,4.000000,-2.000000,4.000000
104927,2026-07-29T20:11:51.453+08:00,135,0.270000,0,1000,4,999,4,0.000000,4.000000,-1.000000,4.000000
104928,2026-07-29T20:11:51.456+08:00,136,0.272000,0,1002,4,1001,4,2.000000,4.000000,1.000000,4.000000
104929,2026-07-29T20:11:51.456+08:00,137,0.274000,0,1000,4,1001,4,0.000000,4.000000,1.000000,4.000000
104930,2026-07-29T20:11:51.456+08:00,138,0.276000,0,998,4,997,4,-2.000000,4.000000,-3.000000,4.000000
104931,2026-07-29T20:11:51.460+08:00,139,0.278000,0,1000,4,996,4,0.000000,4.000000,-4.000000,4.000000
104932,2026-07-29T20:11:51.460+08:00,140,0.280000,0,1002,4,999,4,2.000000,4.000000,-1.000000,4.000000
104933,2026-07-29T20:11:51.460+08:00,141,0.282000,0,999,4,1003,4,-1.000000,4.000000,3.000000,4.000000
104934,2026-07-29T20:11:51.480+08:00,142,0.284000,0,995,4,1004,4,-5.000000,4.000000,4.000000,4.000000
104935,2026-07-29T20:11:51.480+08:00,143,0.286000,0,997,4,1000,4,-3.000000,4.000000,0.000000,4.000000
104936,2026-07-29T20:11:51.480+08:00,144,0.288000,0,1003,4,995,4,3.000000,4.000000,-5.000000,4.000000
104937,2026-07-29T20:11:51.480+08:00,145,0.290000,0,1005,4,994,4,5.000000,4.000000,-6.000000,4.000000
104938,2026-07-29T20:11:51.480+08:00,146,0.292000,0,1000,4,998,4,0.000000,4.000000,-2.000000,4.000000
104939,2026-07-29T20:11:51.480+08:00,147,0.294000,0,995,4,1004,4,-5.000000,4.000000,4.000000,4.000000
104940,2026-07-29T20:11:51.480+08:00,148,0.296000,0,997,4,1005,4,-3.000000,4.000000,5.000000,4.000000
104941,2026-07-29T20:11:51.480+08:00,149,0.298000,0,1002,4,999,4,2.000000,4.000000,-1.000000,4.000000
104942,2026-07-29T20:11:51.511+08:00,150,0.300000,0,1002,4,995,4,2.000000,4.000000,-5.000000,4.000000
104943,2026-07-29T20:11:51.511+08:00,151,0.302000,0,998,4,997,4,-2.000000,4.000000,-3.000000,4.000000
104944,2026-07-29T20:11:51.511+08:00,152,0.304000,0,996,4,1001,4,-4.000000,4.000000,1.000000,4.000000
104945,2026-07-29T20:11:51.511+08:00,153,0.306000,0,1000,4,1000,4,0.000000,4.000000,0.000000,4.000000
104946,2026-07-29T20:11:51.511+08:00,154,0.308000,0,1004,4,998,4,4.000000,4.000000,-2.000000,4.000000
104947,2026-07-29T20:11:51.511+08:00,155,0.310000,0,1001,4,998,4,1.000000,4.000000,-2.000000,4.000000
104948,2026-07-29T20:11:51.511+08:00,156,0.312000,0,996,4,1003,4,-4.000000,4.000000,3.000000,4.000000
104949,2026-07-29T20:11:51.539+08:00,157,0.314000,0,998,4,1004,4,-2.000000,4.000000,4.000000,4.000000
104950,2026-07-29T20:11:51.539+08:00,158,0.316000,0,1002,4,999,4,2.000000,4.000000,-1.000000,4.000000
104951,2026-07-29T20:11:51.539+08:00,159,0.318000,0,1001,4,994,4,1.000000,4.000000,-6.000000,4.000000
104952,2026-07-29T20:11:51.539+08:00,160,0.320000,0,996,4,994,4,-4.000000,4.000000,-6.000000,4.000000
104953,2026-07-29T20:11:51.539+08:00,161,0.322000,0,997,4,1001,4,-3.000000,4.000000,1.000000,4.000000
104954,2026-07-29T20:11:51.539+08:00,162,0.324000,0,1003,4,1007,4,3.000000,4.000000,7.000000,4.000000
104955,2026-07-29T20:11:51.539+08:00,163,0.326000,0,1006,4,1005,4,6.000000,4.000000,5.000000,4.000000
104956,2026-07-29T20:11:51.539+08:00,164,0.328000,0,1000,4,996,4,0.000000,4.000000,-4.000000,4.000000
104957,2026-07-29T20:11:51.539+08:00,165,0.330000,0,992,4,992,4,-8.000000,4.000000,-8.000000,4.000000
104958,2026-07-29T20:11:51.539+08:00,166,0.332000,0,994,4,996,4,-6.000000,4.000000,-4.000000,4.000000
104959,2026-07-29T20:11:51.539+08:00,167,0.334000,0,1002,4,1003,4,2.000000,4.000000,3.000000,4.000000
104960,2026-07-29T20:11:51.539+08:00,168,0.336000,0,1006,4,1005,4,6.000000,4.000000,5.000000,4.000000
104961,2026-07-29T20:11:51.539+08:00,169,0.338000,0,1003,4,1001,4,3.000000,4.000000,1.000000,4.000000
104962,2026-07-29T20:11:51.539+08:00,170,0.340000,0,997,4,997,4,-3.000000,4.000000,-3.000000,4.000000
104963,2026-07-29T20:11:51.539+08:00,171,0.342000,0,996,4,997,4,-4.000000,4.000000,-3.000000,4.000000
104964,2026-07-29T20:11:51.539+08:00,172,0.344000,0,999,4,999,4,-1.000000,4.000000,-1.000000,4.000000
104965,2026-07-29T20:11:51.539+08:00,173,0.346000,0,1000,4,999,4,0.000000,4.000000,-1.000000,4.000000
104966,2026-07-29T20:11:51.539+08:00,174,0.348000,0,998,4,999,4,-2.000000,4.000000,-1.000000,4.000000
104967,2026-07-29T20:11:51.539+08:00,175,0.350000,0,999,4,1000,4,-1.000000,4.000000,0.000000,4.000000
104968,2026-07-29T20:11:51.539+08:00,176,0.352000,0,1002,4,1002,4,2.000000,4.000000,2.000000,4.000000
104969,2026-07-29T20:11:51.539+08:00,177,0.354000,0,1003,4,1002,4,3.000000,4.000000,2.000000,4.000000
104970,2026-07-29T20:11:51.539+08:00,178,0.356000,0,999,4,998,4,-1.000000,4.000000,-2.000000,4.000000
104971,2026-07-29T20:11:51.539+08:00,179,0.358000,0,996,4,996,4,-4.000000,4.000000,-4.000000,4.000000
104972,2026-07-29T20:11:51.545+08:00,180,0.360000,0,996,4,998,4,-4.000000,4.000000,-2.000000,4.000000
104973,2026-07-29T20:11:51.545+08:00,181,0.362000,0,1000,4,1001,4,0.000000,4.000000,1.000000,4.000000
104974,2026-07-29T20:11:51.545+08:00,182,0.364000,0,1002,4,1002,4,2.000000,4.000000,2.000000,4.000000
104975,2026-07-29T20:11:51.548+08:00,183,0.366000,0,1001,4,1000,4,1.000000,4.000000,0.000000,4.000000
104976,2026-07-29T20:11:51.548+08:00,184,0.368000,0,1000,4,998,4,0.000000,4.000000,-2.000000,4.000000
104977,2026-07-29T20:11:51.548+08:00,185,0.370000,0,999,4,999,4,-1.000000,4.000000,-1.000000,4.000000
104978,2026-07-29T20:11:51.549+08:00,186,0.372000,0,999,4,1000,4,-1.000000,4.000000,0.000000,4.000000
104979,2026-07-29T20:11:51.560+08:00,187,0.374000,0,997,4,998,4,-3.000000,4.000000,-2.000000,4.000000
104980,2026-07-29T20:11:51.560+08:00,188,0.376000,0,998,4,996,4,-2.000000,4.000000,-4.000000,4.000000
104981,2026-07-29T20:11:51.560+08:00,189,0.378000,0,1001,4,998,4,1.000000,4.000000,-2.000000,4.000000
104982,2026-07-29T20:11:51.563+08:00,190,0.380000,0,1003,4,1005,4,3.000000,4.000000,5.000000,4.000000
104983,2026-07-29T20:11:51.563+08:00,191,0.382000,0,1002,4,1006,4,2.000000,4.000000,6.000000,4.000000
104984,2026-07-29T20:11:51.563+08:00,192,0.384000,0,998,4,998,4,-2.000000,4.000000,-2.000000,4.000000
104985,2026-07-29T20:11:51.565+08:00,193,0.386000,0,997,4,991,4,-3.000000,4.000000,-9.000000,4.000000
104986,2026-07-29T20:11:51.565+08:00,194,0.388000,0,997,4,995,4,-3.000000,4.000000,-5.000000,4.000000
104987,2026-07-29T20:11:51.576+08:00,195,0.390000,0,998,4,1004,4,-2.000000,4.000000,4.000000,4.000000
104988,2026-07-29T20:11:51.576+08:00,196,0.392000,0,1000,4,1006,4,0.000000,4.000000,6.000000,4.000000
104989,2026-07-29T20:11:51.576+08:00,197,0.394000,0,1004,4,1000,4,4.000000,4.000000,0.000000,4.000000
104990,2026-07-29T20:11:51.576+08:00,198,0.396000,0,1004,4,995,4,4.000000,4.000000,-5.000000,4.000000
104991,2026-07-29T20:11:51.581+08:00,199,0.398000,0,998,4,997,4,-2.000000,4.000000,-3.000000,4.000000
104992,2026-07-29T20:11:51.581+08:00,200,0.400000,0,993,4,1001,4,-7.000000,4.000000,1.000000,4.000000
104993,2026-07-29T20:11:51.581+08:00,201,0.402000,0,995,4,1002,4,-5.000000,4.000000,2.000000,4.000000
104994,2026-07-29T20:11:51.609+08:00,202,0.404000,0,1002,4,999,4,2.000000,4.000000,-1.000000,4.000000
104995,2026-07-29T20:11:51.609+08:00,203,0.406000,0,1005,4,998,4,5.000000,4.000000,-2.000000,4.000000
104996,2026-07-29T20:11:51.609+08:00,204,0.408000,0,1001,4,999,4,1.000000,4.000000,-1.000000,4.000000
104997,2026-07-29T20:11:51.609+08:00,205,0.410000,0,997,4,1000,4,-3.000000,4.000000,0.000000,4.000000
104998,2026-07-29T20:11:51.609+08:00,206,0.412000,0,998,4,1000,4,-2.000000,4.000000,0.000000,4.000000
104999,2026-07-29T20:11:51.609+08:00,207,0.414000,0,1000,4,1000,4,0.000000,4.000000,0.000000,4.000000
105000,2026-07-29T20:11:51.635+08:00,208,0.416000,0,1001,4,1000,4,1.000000,4.000000,0.000000,4.000000
105001,2026-07-29T20:11:51.635+08:00,209,0.418000,0,999,4,1001,4,-1.000000,4.000000,1.000000,4.000000
105002,2026-07-29T20:11:51.635+08:00,210,0.420000,0,998,4,999,4,-2.000000,4.000000,-1.000000,4.000000
105003,2026-07-29T20:11:51.635+08:00,211,0.422000,0,998,4,997,4,-2.000000,4.000000,-3.000000,4.000000
105004,2026-07-29T20:11:51.635+08:00,212,0.424000,0,1000,4,998,4,0.000000,4.000000,-2.000000,4.000000
105005,2026-07-29T20:11:51.635+08:00,213,0.426000,0,1002,4,1000,4,2.000000,4.000000,0.000000,4.000000
105006,2026-07-29T20:11:51.635+08:00,214,0.428000,0,1003,4,1002,4,3.000000,4.000000,2.000000,4.000000
105007,2026-07-29T20:11:51.635+08:00,215,0.430000,0,1000,4,1001,4,0.000000,4.000000,1.000000,4.000000
105008,2026-07-29T20:11:51.635+08:00,216,0.432000,0,994,4,1000,4,-6.000000,4.000000,0.000000,4.000000
105009,2026-07-29T20:11:51.636+08:00,217,0.434000,0,994,4,997,4,-6.000000,4.000000,-3.000000,4.000000
105010,2026-07-29T20:11:51.636+08:00,218,0.436000,0,1000,4,996,4,0.000000,4.000000,-4.000000,4.000000
105011,2026-07-29T20:11:51.636+08:00,219,0.438000,0,1006,4,997,4,6.000000,4.000000,-3.000000,4.000000
105012,2026-07-29T20:11:51.636+08:00,220,0.440000,0,1005,4,1002,4,5.000000,4.000000,2.000000,4.000000
105013,2026-07-29T20:11:51.636+08:00,221,0.442000,0,998,4,1005,4,-2.000000,4.000000,5.000000,4.000000
105014,2026-07-29T20:11:51.636+08:00,222,0.444000,0,994,4,1002,4,-6.000000,4.000000,2.000000,4.000000
105015,2026-07-29T20:11:51.636+08:00,223,0.446000,0,996,4,996,4,-4.000000,4.000000,-4.000000,4.000000
105016,2026-07-29T20:11:51.636+08:00,224,0.448000,0,1001,4,993,4,1.000000,4.000000,-7.000000,4.000000
105017,2026-07-29T20:11:51.636+08:00,225,0.450000,0,1002,4,998,4,2.000000,4.000000,-2.000000,4.000000
105018,2026-07-29T20:11:51.636+08:00,226,0.452000,0,1000,4,1004,4,0.000000,4.000000,4.000000,4.000000
105019,2026-07-29T20:11:51.636+08:00,227,0.454000,0,1000,4,1004,4,0.000000,4.000000,4.000000,4.000000
105020,2026-07-29T20:11:51.638+08:00,228,0.456000,0,1002,4,999,4,2.000000,4.000000,-1.000000,4.000000
105021,2026-07-29T20:11:51.638+08:00,229,0.458000,0,1000,4,997,4,0.000000,4.000000,-3.000000,4.000000
105022,2026-07-29T20:11:51.638+08:00,230,0.460000,0,996,4,998,4,-4.000000,4.000000,-2.000000,4.000000
105023,2026-07-29T20:11:51.640+08:00,231,0.462000,0,995,4,1000,4,-5.000000,4.000000,0.000000,4.000000
105024,2026-07-29T20:11:51.650+08:00,232,0.464000,0,999,4,1000,2,-1.000000,4.000000,0.000000,2.000000
105025,2026-07-29T20:11:51.650+08:00,233,0.466000,0,1005,4,999,2,5.000000,4.000000,-1.000000,2.000000
105026,2026-07-29T20:11:51.650+08:00,234,0.468000,0,1005,4,999,2,5.000000,4.000000,-1.000000,2.000000
105027,2026-07-29T20:11:51.653+08:00,235,0.470000,0,999,4,999,2,-1.000000,4.000000,-1.000000,2.000000
105028,2026-07-29T20:11:51.653+08:00,236,0.472000,0,993,4,1000,2,-7.000000,4.000000,0.000000,2.000000
105029,2026-07-29T20:11:51.653+08:00,237,0.474000,0,995,4,1000,2,-5.000000,4.000000,0.000000,2.000000
105030,2026-07-29T20:11:51.655+08:00,238,0.476000,0,1001,4,1001,2,1.000000,4.000000,1.000000,2.000000
105031,2026-07-29T20:11:51.655+08:00,239,0.478000,0,1006,4,1000,2,6.000000,4.000000,0.000000,2.000000
105032,2026-07-29T20:11:51.673+08:00,240,0.480000,0,1002,4,998,2,2.000000,4.000000,-2.000000,2.000000
105033,2026-07-29T20:11:51.673+08:00,241,0.482000,0,996,4,997,2,-4.000000,4.000000,-3.000000,2.000000
105034,2026-07-29T20:11:51.673+08:00,242,0.484000,0,995,4,999,2,-5.000000,4.000000,-1.000000,2.000000
105035,2026-07-29T20:11:51.673+08:00,243,0.486000,0,1000,4,1002,2,0.000000,4.000000,2.000000,2.000000
105036,2026-07-29T20:11:51.673+08:00,244,0.488000,0,1004,4,1003,2,4.000000,4.000000,3.000000,2.000000
105037,2026-07-29T20:11:51.673+08:00,245,0.490000,0,1002,4,1000,2,2.000000,4.000000,0.000000,2.000000
105038,2026-07-29T20:11:51.673+08:00,246,0.492000,0,997,4,997,2,-3.000000,4.000000,-3.000000,2.000000
105039,2026-07-29T20:11:51.699+08:00,247,0.494000,0,995,4,997,2,-5.000000,4.000000,-3.000000,2.000000
105040,2026-07-29T20:11:51.699+08:00,248,0.496000,0,999,4,1000,2,-1.000000,4.000000,0.000000,2.000000
105041,2026-07-29T20:11:51.699+08:00,249,0.498000,0,1003,4,1001,2,3.000000,4.000000,1.000000,2.000000
105042,2026-07-29T20:11:51.699+08:00,250,0.500000,0,1003,4,999,2,3.000000,4.000000,-1.000000,2.000000
105043,2026-07-29T20:11:51.699+08:00,251,0.502000,0,999,4,999,2,-1.000000,4.000000,-1.000000,2.000000
105044,2026-07-29T20:11:51.699+08:00,252,0.504000,0,997,4,1002,2,-3.000000,4.000000,2.000000,2.000000
105045,2026-07-29T20:11:51.699+08:00,253,0.506000,0,997,4,1002,2,-3.000000,4.000000,2.000000,2.000000
105046,2026-07-29T20:11:51.699+08:00,254,0.508000,0,1000,4,998,2,0.000000,4.000000,-2.000000,2.000000
105047,2026-07-29T20:11:51.722+08:00,255,0.510000,0,1002,4,995,2,2.000000,4.000000,-5.000000,2.000000
105048,2026-07-29T20:11:51.722+08:00,256,0.512000,0,1000,4,997,2,0.000000,4.000000,-3.000000,2.000000
105049,2026-07-29T20:11:51.722+08:00,257,0.514000,0,998,4,1003,2,-2.000000,4.000000,3.000000,2.000000
105050,2026-07-29T20:11:51.722+08:00,258,0.516000,0,999,4,1005,2,-1.000000,4.000000,5.000000,2.000000
105051,2026-07-29T20:11:51.722+08:00,259,0.518000,0,1002,4,1000,2,2.000000,4.000000,0.000000,2.000000
105052,2026-07-29T20:11:51.722+08:00,260,0.520000,0,1002,4,995,2,2.000000,4.000000,-5.000000,2.000000
105053,2026-07-29T20:11:51.722+08:00,261,0.522000,0,997,4,995,2,-3.000000,4.000000,-5.000000,2.000000
105054,2026-07-29T20:11:51.722+08:00,262,0.524000,0,993,4,1001,2,-7.000000,4.000000,1.000000,2.000000
105055,2026-07-29T20:11:51.722+08:00,263,0.526000,0,998,4,1003,2,-2.000000,4.000000,3.000000,2.000000
105056,2026-07-29T20:11:51.722+08:00,264,0.528000,0,1006,4,1000,2,6.000000,4.000000,0.000000,2.000000
105057,2026-07-29T20:11:51.722+08:00,265,0.530000,0,1007,4,997,2,7.000000,4.000000,-3.000000,2.000000
105058,2026-07-29T20:11:51.722+08:00,266,0.532000,0,998,4,998,2,-2.000000,4.000000,-2.000000,2.000000
105059,2026-07-29T20:11:51.722+08:00,267,0.534000,0,991,4,1001,2,-9.000000,4.000000,1.000000,2.000000
105060,2026-07-29T20:11:51.722+08:00,268,0.536000,0,994,4,1001,2,-6.000000,4.000000,1.000000,2.000000
105061,2026-07-29T20:11:51.722+08:00,269,0.538000,0,1004,4,998,2,4.000000,4.000000,-2.000000,2.000000
105062,2026-07-29T20:11:51.723+08:00,270,0.540000,0,1009,4,998,2,9.000000,4.000000,-2.000000,2.000000
105063,2026-07-29T20:11:51.726+08:00,271,0.542000,0,1001,4,1000,2,1.000000,4.000000,0.000000,2.000000
105064,2026-07-29T20:11:51.726+08:00,272,0.544000,0,990,4,1001,2,-10.000000,4.000000,1.000000,2.000000
105065,2026-07-29T20:11:51.726+08:00,273,0.546000,0,993,4,999,2,-7.000000,4.000000,-1.000000,2.000000
105066,2026-07-29T20:11:51.730+08:00,274,0.548000,0,1005,4,998,2,5.000000,4.000000,-2.000000,2.000000
105067,2026-07-29T20:11:51.730+08:00,275,0.550000,0,1010,4,1000,2,10.000000,4.000000,0.000000,2.000000
105068,2026-07-29T20:11:51.730+08:00,276,0.552000,0,1001,4,1001,2,1.000000,4.000000,1.000000,2.000000
105069,2026-07-29T20:11:51.740+08:00,277,0.554000,0,990,4,999,2,-10.000000,4.000000,-1.000000,2.000000
105070,2026-07-29T20:11:51.740+08:00,278,0.556000,0,991,4,996,2,-9.000000,4.000000,-4.000000,2.000000
105071,2026-07-29T20:11:51.740+08:00,279,0.558000,0,1002,4,997,2,2.000000,4.000000,-3.000000,2.000000
105072,2026-07-29T20:11:51.751+08:00,280,0.560000,0,1010,4,1002,2,10.000000,4.000000,2.000000,2.000000
105073,2026-07-29T20:11:51.751+08:00,281,0.562000,0,1006,4,1004,2,6.000000,4.000000,4.000000,2.000000
105074,2026-07-29T20:11:51.751+08:00,282,0.564000,0,995,4,1000,2,-5.000000,4.000000,0.000000,2.000000
105075,2026-07-29T20:11:51.751+08:00,283,0.566000,0,989,4,997,2,-11.000000,4.000000,-3.000000,2.000000
105076,2026-07-29T20:11:51.751+08:00,284,0.568000,0,994,4,997,2,-6.000000,4.000000,-3.000000,2.000000
105077,2026-07-29T20:11:51.758+08:00,285,0.570000,0,1005,4,999,2,5.000000,4.000000,-1.000000,2.000000
105078,2026-07-29T20:11:51.758+08:00,286,0.572000,0,1009,4,1000,2,9.000000,4.000000,0.000000,2.000000
105079,2026-07-29T20:11:51.758+08:00,287,0.574000,0,1004,4,1000,2,4.000000,4.000000,0.000000,2.000000
105080,2026-07-29T20:11:51.758+08:00,288,0.576000,0,993,4,1000,2,-7.000000,4.000000,0.000000,2.000000
105081,2026-07-29T20:11:51.805+08:00,289,0.578000,0,990,4,1001,2,-10.000000,4.000000,1.000000,2.000000
105082,2026-07-29T20:11:51.805+08:00,290,0.580000,0,997,4,1001,2,-3.000000,4.000000,1.000000,2.000000
105083,2026-07-29T20:11:51.805+08:00,291,0.582000,0,1007,4,997,2,7.000000,4.000000,-3.000000,2.000000
105084,2026-07-29T20:11:51.805+08:00,292,0.584000,0,1009,6,996,2,9.000000,6.000000,-4.000000,2.000000
105085,2026-07-29T20:11:51.805+08:00,293,0.586000,0,1000,4,999,2,0.000000,4.000000,-1.000000,2.000000
105086,2026-07-29T20:11:51.805+08:00,294,0.588000,0,990,6,1003,2,-10.000000,6.000000,3.000000,2.000000
105087,2026-07-29T20:11:51.805+08:00,295,0.590000,0,993,6,1003,2,-7.000000,6.000000,3.000000,2.000000
105088,2026-07-29T20:11:51.805+08:00,296,0.592000,0,1003,6,999,2,3.000000,6.000000,-1.000000,2.000000
105089,2026-07-29T20:11:51.805+08:00,297,0.594000,0,1008,6,996,2,8.000000,6.000000,-4.000000,2.000000
105090,2026-07-29T20:11:51.805+08:00,298,0.596000,0,1002,6,998,2,2.000000,6.000000,-2.000000,2.000000
105091,2026-07-29T20:11:51.805+08:00,299,0.598000,0,994,6,1001,2,-6.000000,6.000000,1.000000,2.000000
105092,2026-07-29T20:11:51.805+08:00,300,0.600000,0,995,6,1001,2,-5.000000,6.000000,1.000000,2.000000
105093,2026-07-29T20:11:51.805+08:00,301,0.602000,0,1002,6,999,2,2.000000,6.000000,-1.000000,2.000000
105094,2026-07-29T20:11:51.805+08:00,302,0.604000,0,1004,6,998,2,4.000000,6.000000,-2.000000,2.000000
105095,2026-07-29T20:11:51.805+08:00,303,0.606000,0,1001,6,1000,2,1.000000,6.000000,0.000000,2.000000
105096,2026-07-29T20:11:51.805+08:00,304,0.608000,0,996,6,1002,2,-4.000000,6.000000,2.000000,2.000000
105097,2026-07-29T20:11:51.805+08:00,305,0.610000,0,997,6,1001,2,-3.000000,6.000000,1.000000,2.000000
105098,2026-07-29T20:11:51.805+08:00,306,0.612000,0,1000,6,998,2,0.000000,6.000000,-2.000000,2.000000
105099,2026-07-29T20:11:51.805+08:00,307,0.614000,0,1001,6,996,2,1.000000,6.000000,-4.000000,2.000000
105100,2026-07-29T20:11:51.805+08:00,308,0.616000,0,1001,6,998,2,1.000000,6.000000,-2.000000,2.000000
105101,2026-07-29T20:11:51.805+08:00,309,0.618000,0,1000,6,1001,2,0.000000,6.000000,1.000000,2.000000
105102,2026-07-29T20:11:51.805+08:00,310,0.620000,0,1000,6,1002,2,0.000000,6.000000,2.000000,2.000000
105103,2026-07-29T20:11:51.805+08:00,311,0.622000,0,998,6,1001,2,-2.000000,6.000000,1.000000,2.000000
105104,2026-07-29T20:11:51.805+08:00,312,0.624000,0,997,6,999,2,-3.000000,6.000000,-1.000000,2.000000
105105,2026-07-29T20:11:51.806+08:00,313,0.626000,0,999,6,998,2,-1.000000,6.000000,-2.000000,2.000000
105106,2026-07-29T20:11:51.806+08:00,314,0.628000,0,1002,6,998,2,2.000000,6.000000,-2.000000,2.000000
105107,2026-07-29T20:11:51.815+08:00,315,0.630000,0,1002,6,998,2,2.000000,6.000000,-2.000000,2.000000
105108,2026-07-29T20:11:51.815+08:00,316,0.632000,0,999,6,1000,2,-1.000000,6.000000,0.000000,2.000000
105109,2026-07-29T20:11:51.815+08:00,317,0.634000,0,997,6,1002,2,-3.000000,6.000000,2.000000,2.000000
105110,2026-07-29T20:11:51.817+08:00,318,0.636000,0,999,6,1001,2,-1.000000,6.000000,1.000000,2.000000
105111,2026-07-29T20:11:51.817+08:00,319,0.638000,0,1001,6,999,2,1.000000,6.000000,-1.000000,2.000000
105112,2026-07-29T20:11:51.817+08:00,320,0.640000,0,1001,6,997,2,1.000000,6.000000,-3.000000,2.000000
105113,2026-07-29T20:11:51.820+08:00,321,0.642000,0,998,6,999,2,-2.000000,6.000000,-1.000000,2.000000
105114,2026-07-29T20:11:51.833+08:00,322,0.644000,0,997,6,1000,2,-3.000000,6.000000,0.000000,2.000000
105115,2026-07-29T20:11:51.833+08:00,323,0.646000,0,1000,6,1001,2,0.000000,6.000000,1.000000,2.000000
105116,2026-07-29T20:11:51.833+08:00,324,0.648000,0,1003,6,1000,2,3.000000,6.000000,0.000000,2.000000
105117,2026-07-29T20:11:51.833+08:00,325,0.650000,0,1001,6,999,2,1.000000,6.000000,-1.000000,2.000000
105118,2026-07-29T20:11:51.833+08:00,326,0.652000,0,998,6,998,2,-2.000000,6.000000,-2.000000,2.000000
105119,2026-07-29T20:11:51.833+08:00,327,0.654000,0,997,6,999,2,-3.000000,6.000000,-1.000000,2.000000
105120,2026-07-29T20:11:51.839+08:00,328,0.656000,0,999,6,1000,2,-1.000000,6.000000,0.000000,2.000000
105121,2026-07-29T20:11:51.839+08:00,329,0.658000,0,1001,6,1002,2,1.000000,6.000000,2.000000,2.000000
105122,2026-07-29T20:11:51.859+08:00,330,0.660000,0,1000,4,1001,2,0.000000,4.000000,1.000000,2.000000
105123,2026-07-29T20:11:51.859+08:00,331,0.662000,0,999,4,998,2,-1.000000,4.000000,-2.000000,2.000000
105124,2026-07-29T20:11:51.859+08:00,332,0.664000,0,1000,4,996,2,0.000000,4.000000,-4.000000,2.000000
105125,2026-07-29T20:11:51.881+08:00,333,0.666000,0,1001,4,998,2,1.000000,4.000000,-2.000000,2.000000
105126,2026-07-29T20:11:51.881+08:00,334,0.668000,0,1000,4,1002,2,0.000000,4.000000,2.000000,2.000000
105127,2026-07-29T20:11:51.881+08:00,335,0.670000,0,997,4,1003,2,-3.000000,4.000000,3.000000,2.000000
105128,2026-07-29T20:11:51.881+08:00,336,0.672000,0,997,4,1001,2,-3.000000,4.000000,1.000000,2.000000
105129,2026-07-29T20:11:51.881+08:00,337,0.674000,0,1000,4,997,2,0.000000,4.000000,-3.000000,2.000000
105130,2026-07-29T20:11:51.881+08:00,338,0.676000,0,1003,4,994,2,3.000000,4.000000,-6.000000,2.000000
105131,2026-07-29T20:11:51.881+08:00,339,0.678000,0,1001,4,998,2,1.000000,4.000000,-2.000000,2.000000
105132,2026-07-29T20:11:51.881+08:00,340,0.680000,0,998,4,1004,2,-2.000000,4.000000,4.000000,2.000000
105133,2026-07-29T20:11:51.881+08:00,341,0.682000,0,996,4,1006,2,-4.000000,4.000000,6.000000,2.000000
105134,2026-07-29T20:11:51.881+08:00,342,0.684000,0,999,4,1001,2,-1.000000,4.000000,1.000000,2.000000
105135,2026-07-29T20:11:51.881+08:00,343,0.686000,0,1003,4,995,2,3.000000,4.000000,-5.000000,2.000000
105136,2026-07-29T20:11:51.881+08:00,344,0.688000,0,1001,4,994,2,1.000000,4.000000,-6.000000,2.000000
105137,2026-07-29T20:11:51.881+08:00,345,0.690000,0,997,4,999,2,-3.000000,4.000000,-1.000000,2.000000
105138,2026-07-29T20:11:51.881+08:00,346,0.692000,0,996,4,1003,2,-4.000000,4.000000,3.000000,2.000000
105139,2026-07-29T20:11:51.881+08:00,347,0.694000,0,1001,4,1003,2,1.000000,4.000000,3.000000,2.000000
105140,2026-07-29T20:11:51.881+08:00,348,0.696000,0,1004,4,1000,2,4.000000,4.000000,0.000000,2.000000
105141,2026-07-29T20:11:51.881+08:00,349,0.698000,0,1002,4,998,2,2.000000,4.000000,-2.000000,2.000000
105142,2026-07-29T20:11:51.881+08:00,350,0.700000,0,996,4,998,2,-4.000000,4.000000,-2.000000,2.000000
105143,2026-07-29T20:11:51.881+08:00,351,0.702000,0,994,4,999,2,-6.000000,4.000000,-1.000000,2.000000
105144,2026-07-29T20:11:51.891+08:00,352,0.704000,0,999,4,999,2,-1.000000,4.000000,-1.000000,2.000000
105145,2026-07-29T20:11:51.891+08:00,353,0.706000,0,1005,4,999,2,5.000000,4.000000,-1.000000,2.000000
105146,2026-07-29T20:11:51.891+08:00,354,0.708000,0,1006,4,1000,2,6.000000,4.000000,0.000000,2.000000
105147,2026-07-29T20:11:51.893+08:00,355,0.710000,0,999,4,1001,2,-1.000000,4.000000,1.000000,2.000000
105148,2026-07-29T20:11:51.893+08:00,356,0.712000,0,992,6,1001,2,-8.000000,6.000000,1.000000,2.000000
105149,2026-07-29T20:11:51.893+08:00,357,0.714000,0,993,6,999,2,-7.000000,6.000000,-1.000000,2.000000
105150,2026-07-29T20:11:51.895+08:00,358,0.716000,0,1002,6,998,2,2.000000,6.000000,-2.000000,2.000000
105151,2026-07-29T20:11:51.895+08:00,359,0.718000,0,1008,6,998,2,8.000000,6.000000,-2.000000,2.000000
105152,2026-07-29T20:11:51.908+08:00,360,0.720000,0,1005,6,999,2,5.000000,6.000000,-1.000000,2.000000
105153,2026-07-29T20:11:51.908+08:00,361,0.722000,0,996,6,1000,2,-4.000000,6.000000,0.000000,2.000000
105154,2026-07-29T20:11:51.908+08:00,362,0.724000,0,992,6,1001,2,-8.000000,6.000000,1.000000,2.000000
105155,2026-07-29T20:11:51.908+08:00,363,0.726000,0,996,6,1000,2,-4.000000,6.000000,0.000000,2.000000
105156,2026-07-29T20:11:51.919+08:00,364,0.728000,0,1002,6,999,2,2.000000,6.000000,-1.000000,2.000000
105157,2026-07-29T20:11:51.919+08:00,365,0.730000,0,1004,6,998,2,4.000000,6.000000,-2.000000,2.000000
105158,2026-07-29T20:11:51.919+08:00,366,0.732000,0,1002,6,1000,2,2.000000,6.000000,0.000000,2.000000
105159,2026-07-29T20:11:51.925+08:00,367,0.734000,0,998,6,1000,2,-2.000000,6.000000,0.000000,2.000000
105160,2026-07-29T20:11:51.925+08:00,368,0.736000,0,997,6,998,2,-3.000000,6.000000,-2.000000,2.000000
105161,2026-07-29T20:11:51.925+08:00,369,0.738000,0,998,6,997,2,-2.000000,6.000000,-3.000000,2.000000
105162,2026-07-29T20:11:51.925+08:00,370,0.740000,0,999,6,1000,2,-1.000000,6.000000,0.000000,2.000000
105163,2026-07-29T20:11:51.925+08:00,371,0.742000,0,1001,6,1004,2,1.000000,6.000000,4.000000,2.000000
105164,2026-07-29T20:11:51.925+08:00,372,0.744000,0,1001,6,1003,2,1.000000,6.000000,3.000000,2.000000
105165,2026-07-29T20:11:51.962+08:00,373,0.746000,0,1000,6,997,2,0.000000,6.000000,-3.000000,2.000000
105166,2026-07-29T20:11:51.962+08:00,374,0.748000,0,998,6,993,2,-2.000000,6.000000,-7.000000,2.000000
105167,2026-07-29T20:11:51.962+08:00,375,0.750000,0,998,4,996,2,-2.000000,4.000000,-4.000000,2.000000
105168,2026-07-29T20:11:51.962+08:00,376,0.752000,0,1001,4,1003,2,1.000000,4.000000,3.000000,2.000000
105169,2026-07-29T20:11:51.962+08:00,377,0.754000,0,1002,4,1007,2,2.000000,4.000000,7.000000,2.000000
105170,2026-07-29T20:11:51.962+08:00,378,0.756000,0,999,4,1003,2,-1.000000,4.000000,3.000000,2.000000
105171,2026-07-29T20:11:51.962+08:00,379,0.758000,0,997,4,996,2,-3.000000,4.000000,-4.000000,2.000000
105172,2026-07-29T20:11:51.962+08:00,380,0.760000,0,998,4,992,2,-2.000000,4.000000,-8.000000,2.000000
105173,2026-07-29T20:11:51.962+08:00,381,0.762000,0,1002,4,996,2,2.000000,4.000000,-4.000000,2.000000
105174,2026-07-29T20:11:51.962+08:00,382,0.764000,0,1001,4,1003,2,1.000000,4.000000,3.000000,2.000000
105175,2026-07-29T20:11:51.962+08:00,383,0.766000,0,998,4,1007,2,-2.000000,4.000000,7.000000,2.000000
105176,2026-07-29T20:11:51.962+08:00,384,0.768000,0,998,4,1003,2,-2.000000,4.000000,3.000000,2.000000
105177,2026-07-29T20:11:51.962+08:00,385,0.770000,0,1002,4,996,2,2.000000,4.000000,-4.000000,2.000000
105178,2026-07-29T20:11:51.962+08:00,386,0.772000,0,1002,4,993,2,2.000000,4.000000,-7.000000,2.000000
105179,2026-07-29T20:11:51.962+08:00,387,0.774000,0,998,4,996,2,-2.000000,4.000000,-4.000000,2.000000
105180,2026-07-29T20:11:51.962+08:00,388,0.776000,0,995,6,1001,2,-5.000000,6.000000,1.000000,2.000000
105181,2026-07-29T20:11:51.962+08:00,389,0.778000,0,999,4,1004,2,-1.000000,4.000000,4.000000,2.000000
105182,2026-07-29T20:11:51.965+08:00,390,0.780000,0,1004,4,1003,2,4.000000,4.000000,3.000000,2.000000
105183,2026-07-29T20:11:51.965+08:00,391,0.782000,0,1002,4,999,2,2.000000,4.000000,-1.000000,2.000000
105184,2026-07-29T20:11:51.965+08:00,392,0.784000,0,997,4,997,2,-3.000000,4.000000,-3.000000,2.000000
105185,2026-07-29T20:11:51.968+08:00,393,0.786000,0,997,4,997,2,-3.000000,4.000000,-3.000000,2.000000
105186,2026-07-29T20:11:51.968+08:00,394,0.788000,0,1000,4,999,2,0.000000,4.000000,-1.000000,2.000000
105187,2026-07-29T20:11:51.968+08:00,395,0.790000,0,1002,4,1000,2,2.000000,4.000000,0.000000,2.000000
105188,2026-07-29T20:11:51.969+08:00,396,0.792000,0,1000,4,1002,2,0.000000,4.000000,2.000000,2.000000
105189,2026-07-29T20:11:51.984+08:00,397,0.794000,0,997,4,1003,2,-3.000000,4.000000,3.000000,2.000000
105190,2026-07-29T20:11:51.984+08:00,398,0.796000,0,998,4,1001,2,-2.000000,4.000000,1.000000,2.000000
105191,2026-07-29T20:11:51.984+08:00,399,0.798000,0,1001,4,996,2,1.000000,4.000000,-4.000000,2.000000
105192,2026-07-29T20:11:51.984+08:00,400,0.800000,0,1002,4,993,2,2.000000,4.000000,-7.000000,2.000000
105193,2026-07-29T20:11:51.984+08:00,401,0.802000,0,1000,4,998,2,0.000000,4.000000,-2.000000,2.000000
105194,2026-07-29T20:11:51.984+08:00,402,0.804000,0,997,4,1006,2,-3.000000,4.000000,6.000000,2.000000
105195,2026-07-29T20:11:51.988+08:00,403,0.806000,0,998,4,1007,2,-2.000000,4.000000,7.000000,2.000000
105196,2026-07-29T20:11:51.988+08:00,404,0.808000,0,1000,4,998,2,0.000000,4.000000,-2.000000,2.000000
105197,2026-07-29T20:11:51.995+08:00,405,0.810000,0,1000,4,991,2,0.000000,4.000000,-9.000000,2.000000
105198,2026-07-29T20:11:51.995+08:00,406,0.812000,0,999,4,994,2,-1.000000,4.000000,-6.000000,2.000000
105199,2026-07-29T20:11:51.995+08:00,407,0.814000,0,1001,4,1003,2,1.000000,4.000000,3.000000,2.000000
105200,2026-07-29T20:11:52.017+08:00,408,0.816000,0,1003,4,1006,2,3.000000,4.000000,6.000000,2.000000
105201,2026-07-29T20:11:52.017+08:00,409,0.818000,0,1002,4,1003,2,2.000000,4.000000,3.000000,2.000000
105202,2026-07-29T20:11:52.017+08:00,410,0.820000,0,996,4,997,2,-4.000000,4.000000,-3.000000,2.000000
105203,2026-07-29T20:11:52.017+08:00,411,0.822000,0,993,4,995,2,-7.000000,4.000000,-5.000000,2.000000
105204,2026-07-29T20:11:52.017+08:00,412,0.824000,0,998,4,997,2,-2.000000,4.000000,-3.000000,2.000000
105205,2026-07-29T20:11:52.017+08:00,413,0.826000,0,1005,4,1000,2,5.000000,4.000000,0.000000,2.000000
105206,2026-07-29T20:11:52.017+08:00,414,0.828000,0,1006,4,1002,2,6.000000,4.000000,2.000000,2.000000
105207,2026-07-29T20:11:52.017+08:00,415,0.830000,0,1001,4,1001,2,1.000000,4.000000,1.000000,2.000000
105208,2026-07-29T20:11:52.017+08:00,416,0.832000,0,995,4,1000,2,-5.000000,4.000000,0.000000,2.000000
105209,2026-07-29T20:11:52.017+08:00,417,0.834000,0,994,4,999,2,-6.000000,4.000000,-1.000000,2.000000
105210,2026-07-29T20:11:52.017+08:00,418,0.836000,0,998,4,999,2,-2.000000,4.000000,-1.000000,2.000000
105211,2026-07-29T20:11:52.017+08:00,419,0.838000,0,1003,4,998,2,3.000000,4.000000,-2.000000,2.000000
105212,2026-07-29T20:11:52.037+08:00,420,0.840000,0,1003,4,998,2,3.000000,4.000000,-2.000000,2.000000
105213,2026-07-29T20:11:52.037+08:00,421,0.842000,0,1000,4,1000,2,0.000000,4.000000,0.000000,2.000000
105214,2026-07-29T20:11:52.037+08:00,422,0.844000,0,999,2,1002,2,-1.000000,2.000000,2.000000,2.000000
105215,2026-07-29T20:11:52.037+08:00,423,0.846000,0,1000,2,1002,2,0.000000,2.000000,2.000000,2.000000
105216,2026-07-29T20:11:52.037+08:00,424,0.848000,0,999,2,999,2,-1.000000,2.000000,-1.000000,2.000000
105217,2026-07-29T20:11:52.037+08:00,425,0.850000,0,996,2,996,2,-4.000000,2.000000,-4.000000,2.000000
105218,2026-07-29T20:11:52.037+08:00,426,0.852000,0,997,2,997,2,-3.000000,2.000000,-3.000000,2.000000
105219,2026-07-29T20:11:52.040+08:00,427,0.854000,0,1002,2,1000,2,2.000000,2.000000,0.000000,2.000000
105220,2026-07-29T20:11:52.040+08:00,428,0.856000,0,1006,2,1003,2,6.000000,2.000000,3.000000,2.000000
105221,2026-07-29T20:11:52.040+08:00,429,0.858000,0,1003,2,1002,2,3.000000,2.000000,2.000000,2.000000
105222,2026-07-29T20:11:52.044+08:00,430,0.860000,0,995,2,997,2,-5.000000,2.000000,-3.000000,2.000000
105223,2026-07-29T20:11:52.044+08:00,431,0.862000,0,993,2,996,2,-7.000000,2.000000,-4.000000,2.000000
105224,2026-07-29T20:11:52.044+08:00,432,0.864000,0,998,2,999,2,-2.000000,2.000000,-1.000000,2.000000
105225,2026-07-29T20:11:52.045+08:00,433,0.866000,0,1003,2,1002,2,3.000000,2.000000,2.000000,2.000000
105226,2026-07-29T20:11:52.045+08:00,434,0.868000,0,1003,2,1001,2,3.000000,2.000000,1.000000,2.000000
105227,2026-07-29T20:11:52.060+08:00,435,0.870000,0,1000,2,998,2,0.000000,2.000000,-2.000000,2.000000
105228,2026-07-29T20:11:52.060+08:00,436,0.872000,0,998,2,997,2,-2.000000,2.000000,-3.000000,2.000000
105229,2026-07-29T20:11:52.060+08:00,437,0.874000,0,999,2,999,2,-1.000000,2.000000,-1.000000,2.000000
105230,2026-07-29T20:11:52.060+08:00,438,0.876000,0,999,2,1001,2,-1.000000,2.000000,1.000000,2.000000
105231,2026-07-29T20:11:52.060+08:00,439,0.878000,0,997,2,1001,2,-3.000000,2.000000,1.000000,2.000000
105232,2026-07-29T20:11:52.060+08:00,440,0.880000,0,998,2,1001,2,-2.000000,2.000000,1.000000,2.000000
105233,2026-07-29T20:11:52.060+08:00,441,0.882000,0,1001,2,1000,2,1.000000,2.000000,0.000000,2.000000
105234,2026-07-29T20:11:52.076+08:00,442,0.884000,0,1004,2,997,2,4.000000,2.000000,-3.000000,2.000000
105235,2026-07-29T20:11:52.076+08:00,443,0.886000,0,1002,2,995,2,2.000000,2.000000,-5.000000,2.000000
105236,2026-07-29T20:11:52.076+08:00,444,0.888000,0,997,2,999,2,-3.000000,2.000000,-1.000000,2.000000
105237,2026-07-29T20:11:52.078+08:00,445,0.890000,0,994,2,1006,2,-6.000000,2.000000,6.000000,2.000000
105238,2026-07-29T20:11:52.078+08:00,446,0.892000,0,997,4,1005,4,-3.000000,4.000000,5.000000,4.000000
105239,2026-07-29T20:11:52.078+08:00,447,0.894000,0,1003,4,997,4,3.000000,4.000000,-3.000000,4.000000
105240,2026-07-29T20:11:52.078+08:00,448,0.896000,0,1006,4,992,4,6.000000,4.000000,-8.000000,4.000000
105241,2026-07-29T20:11:52.078+08:00,449,0.898000,0,1001,4,995,4,1.000000,4.000000,-5.000000,4.000000
105242,2026-07-29T20:11:52.093+08:00,450,0.900000,0,996,4,1003,4,-4.000000,4.000000,3.000000,4.000000
105243,2026-07-29T20:11:52.093+08:00,451,0.902000,0,995,4,1007,4,-5.000000,4.000000,7.000000,4.000000
105244,2026-07-29T20:11:52.093+08:00,452,0.904000,0,999,4,1002,4,-1.000000,4.000000,2.000000,4.000000
105245,2026-07-29T20:11:52.093+08:00,453,0.906000,0,1002,4,996,4,2.000000,4.000000,-4.000000,4.000000
105246,2026-07-29T20:11:52.093+08:00,454,0.908000,0,1002,4,994,4,2.000000,4.000000,-6.000000,4.000000
105247,2026-07-29T20:11:52.093+08:00,455,0.910000,0,1000,4,998,4,0.000000,4.000000,-2.000000,4.000000
105248,2026-07-29T20:11:52.093+08:00,456,0.912000,0,999,4,1003,4,-1.000000,4.000000,3.000000,4.000000
105249,2026-07-29T20:11:52.113+08:00,457,0.914000,0,998,4,1004,4,-2.000000,4.000000,4.000000,4.000000
105250,2026-07-29T20:11:52.113+08:00,458,0.916000,0,998,4,1000,4,-2.000000,4.000000,0.000000,4.000000
105251,2026-07-29T20:11:52.113+08:00,459,0.918000,0,999,4,997,4,-1.000000,4.000000,-3.000000,4.000000
105252,2026-07-29T20:11:52.113+08:00,460,0.920000,0,1001,4,997,4,1.000000,4.000000,-3.000000,4.000000
105253,2026-07-29T20:11:52.113+08:00,461,0.922000,0,1003,4,999,4,3.000000,4.000000,-1.000000,4.000000
105254,2026-07-29T20:11:52.113+08:00,462,0.924000,0,1000,4,1000,4,0.000000,4.000000,0.000000,4.000000
105255,2026-07-29T20:11:52.113+08:00,463,0.926000,0,995,4,1000,4,-5.000000,4.000000,0.000000,4.000000
105256,2026-07-29T20:11:52.113+08:00,464,0.928000,0,994,4,1000,4,-6.000000,4.000000,0.000000,4.000000
105257,2026-07-29T20:11:52.115+08:00,465,0.930000,0,1001,4,1000,4,1.000000,4.000000,0.000000,4.000000
105258,2026-07-29T20:11:52.115+08:00,466,0.932000,0,1009,4,1000,4,9.000000,4.000000,0.000000,4.000000
105259,2026-07-29T20:11:52.115+08:00,467,0.934000,0,1005,4,998,4,5.000000,4.000000,-2.000000,4.000000
105260,2026-07-29T20:11:52.118+08:00,468,0.936000,0,994,4,997,4,-6.000000,4.000000,-3.000000,4.000000
105261,2026-07-29T20:11:52.118+08:00,469,0.938000,0,989,4,999,4,-11.000000,4.000000,-1.000000,4.000000
105262,2026-07-29T20:11:52.118+08:00,470,0.940000,0,996,4,1003,4,-4.000000,4.000000,3.000000,4.000000
105263,2026-07-29T20:11:52.119+08:00,471,0.942000,0,1007,4,1004,4,7.000000,4.000000,4.000000,4.000000
105264,2026-07-29T20:11:52.135+08:00,472,0.944000,0,1008,4,997,4,8.000000,4.000000,-3.000000,4.000000
105265,2026-07-29T20:11:52.135+08:00,473,0.946000,0,1000,4,992,4,0.000000,4.000000,-8.000000,4.000000
105266,2026-07-29T20:11:52.135+08:00,474,0.948000,0,994,4,996,4,-6.000000,4.000000,-4.000000,4.000000
105267,2026-07-29T20:11:52.135+08:00,475,0.950000,0,996,4,1006,4,-4.000000,4.000000,6.000000,4.000000
105268,2026-07-29T20:11:52.135+08:00,476,0.952000,0,1001,4,1008,4,1.000000,4.000000,8.000000,4.000000
105269,2026-07-29T20:11:52.135+08:00,477,0.954000,0,1003,4,1000,4,3.000000,4.000000,0.000000,4.000000
105270,2026-07-29T20:11:52.135+08:00,478,0.956000,0,1000,4,991,4,0.000000,4.000000,-9.000000,4.000000
105271,2026-07-29T20:11:52.135+08:00,479,0.958000,0,997,4,991,4,-3.000000,4.000000,-9.000000,4.000000
105272,2026-07-29T20:11:52.150+08:00,480,0.960000,0,998,4,1000,4,-2.000000,4.000000,0.000000,4.000000
105273,2026-07-29T20:11:52.150+08:00,481,0.962000,0,1002,4,1008,4,2.000000,4.000000,8.000000,4.000000
105274,2026-07-29T20:11:52.150+08:00,482,0.964000,0,1002,4,1006,4,2.000000,4.000000,6.000000,4.000000
105275,2026-07-29T20:11:52.150+08:00,483,0.966000,0,999,4,998,4,-1.000000,4.000000,-2.000000,4.000000
105276,2026-07-29T20:11:52.150+08:00,484,0.968000,0,997,4,992,4,-3.000000,4.000000,-8.000000,4.000000
105277,2026-07-29T20:11:52.150+08:00,485,0.970000,0,998,4,994,4,-2.000000,4.000000,-6.000000,4.000000
105278,2026-07-29T20:11:52.150+08:00,486,0.972000,0,1000,4,1001,4,0.000000,4.000000,1.000000,4.000000
105279,2026-07-29T20:11:52.183+08:00,487,0.974000,0,1000,4,1005,4,0.000000,4.000000,5.000000,4.000000
105280,2026-07-29T20:11:52.183+08:00,488,0.976000,0,1000,4,1002,4,0.000000,4.000000,2.000000,4.000000
105281,2026-07-29T20:11:52.183+08:00,489,0.978000,0,1001,4,997,4,1.000000,4.000000,-3.000000,4.000000
105282,2026-07-29T20:11:52.183+08:00,490,0.980000,0,1001,4,996,4,1.000000,4.000000,-4.000000,4.000000
105283,2026-07-29T20:11:52.183+08:00,491,0.982000,0,999,4,999,4,-1.000000,4.000000,-1.000000,4.000000
105284,2026-07-29T20:11:52.183+08:00,492,0.984000,0,997,4,1002,4,-3.000000,4.000000,2.000000,4.000000
105285,2026-07-29T20:11:52.183+08:00,493,0.986000,0,998,4,1001,4,-2.000000,4.000000,1.000000,4.000000
105286,2026-07-29T20:11:52.183+08:00,494,0.988000,0,1001,4,998,4,1.000000,4.000000,-2.000000,4.000000
105287,2026-07-29T20:11:52.183+08:00,495,0.990000,0,1002,4,997,4,2.000000,4.000000,-3.000000,4.000000
105288,2026-07-29T20:11:52.183+08:00,496,0.992000,0,1001,4,999,4,1.000000,4.000000,-1.000000,4.000000
105289,2026-07-29T20:11:52.183+08:00,497,0.994000,0,999,4,1001,4,-1.000000,4.000000,1.000000,4.000000
105290,2026-07-29T20:11:52.183+08:00,498,0.996000,0,998,4,1001,4,-2.000000,4.000000,1.000000,4.000000
105291,2026-07-29T20:11:52.183+08:00,499,0.998000,0,997,4,999,4,-3.000000,4.000000,-1.000000,4.000000
105292,2026-07-29T20:11:52.183+08:00,500,1.000000,0,998,4,998,4,-2.000000,4.000000,-2.000000,4.000000
105293,2026-07-29T20:11:52.183+08:00,501,1.002000,0,1001,4,999,4,1.000000,4.000000,-1.000000,4.000000
105294,2026-07-29T20:11:52.191+08:00,502,1.004000,0,1002,4,1000,4,2.000000,4.000000,0.000000,4.000000
105295,2026-07-29T20:11:52.191+08:00,503,1.006000,0,1001,4,1000,4,1.000000,4.000000,0.000000,4.000000
105296,2026-07-29T20:11:52.191+08:00,504,1.008000,0,999,4,999,4,-1.000000,4.000000,-1.000000,4.000000
105297,2026-07-29T20:11:52.192+08:00,505,1.010000,0,997,4,999,4,-3.000000,4.000000,-1.000000,4.000000
105298,2026-07-29T20:11:52.192+08:00,506,1.012000,0,997,4,1001,4,-3.000000,4.000000,1.000000,4.000000
105299,2026-07-29T20:11:52.192+08:00,507,1.014000,0,998,4,1000,4,-2.000000,4.000000,0.000000,4.000000
105300,2026-07-29T20:11:52.196+08:00,508,1.016000,0,1002,4,999,4,2.000000,4.000000,-1.000000,4.000000
105301,2026-07-29T20:11:52.196+08:00,509,1.018000,0,1004,4,998,4,4.000000,4.000000,-2.000000,4.000000
105302,2026-07-29T20:11:52.207+08:00,510,1.020000,0,1002,4,999,4,2.000000,4.000000,-1.000000,4.000000
105303,2026-07-29T20:11:52.207+08:00,511,1.022000,0,997,4,1000,4,-3.000000,4.000000,0.000000,4.000000
105304,2026-07-29T20:11:52.207+08:00,512,1.024000,0,995,4,1001,4,-5.000000,4.000000,1.000000,4.000000
105305,2026-07-29T20:11:52.207+08:00,513,1.026000,0,998,4,1001,4,-2.000000,4.000000,1.000000,4.000000
105306,2026-07-29T20:11:52.207+08:00,514,1.028000,0,1003,4,999,4,3.000000,4.000000,-1.000000,4.000000
105307,2026-07-29T20:11:52.207+08:00,515,1.030000,0,1003,4,998,4,3.000000,4.000000,-2.000000,4.000000
105308,2026-07-29T20:11:52.213+08:00,516,1.032000,0,1000,4,997,4,0.000000,4.000000,-3.000000,4.000000
105309,2026-07-29T20:11:52.221+08:00,517,1.034000,0,997,4,999,4,-3.000000,4.000000,-1.000000,4.000000
105310,2026-07-29T20:11:52.221+08:00,518,1.036000,0,997,4,1003,4,-3.000000,4.000000,3.000000,4.000000
105311,2026-07-29T20:11:52.221+08:00,519,1.038000,0,1001,4,1003,4,1.000000,4.000000,3.000000,4.000000
105312,2026-07-29T20:11:52.251+08:00,520,1.040000,0,1002,4,1000,4,2.000000,4.000000,0.000000,4.000000
105313,2026-07-29T20:11:52.251+08:00,521,1.042000,0,1000,4,996,4,0.000000,4.000000,-4.000000,4.000000
105314,2026-07-29T20:11:52.251+08:00,522,1.044000,0,997,4,996,4,-3.000000,4.000000,-4.000000,4.000000
105315,2026-07-29T20:11:52.251+08:00,523,1.046000,0,997,4,999,4,-3.000000,4.000000,-1.000000,4.000000
105316,2026-07-29T20:11:52.251+08:00,524,1.048000,0,1001,4,1003,4,1.000000,4.000000,3.000000,4.000000
105317,2026-07-29T20:11:52.251+08:00,525,1.050000,0,1003,4,1003,4,3.000000,4.000000,3.000000,4.000000
105318,2026-07-29T20:11:52.251+08:00,526,1.052000,0,1001,4,1000,4,1.000000,4.000000,0.000000,4.000000
105319,2026-07-29T20:11:52.251+08:00,527,1.054000,0,998,4,997,4,-2.000000,4.000000,-3.000000,4.000000
105320,2026-07-29T20:11:52.251+08:00,528,1.056000,0,997,4,997,4,-3.000000,4.000000,-3.000000,4.000000
105321,2026-07-29T20:11:52.251+08:00,529,1.058000,0,999,4,999,4,-1.000000,4.000000,-1.000000,4.000000
105322,2026-07-29T20:11:52.251+08:00,530,1.060000,0,1001,4,1000,4,1.000000,4.000000,0.000000,4.000000
105323,2026-07-29T20:11:52.251+08:00,531,1.062000,0,1001,4,1001,4,1.000000,4.000000,1.000000,4.000000
105324,2026-07-29T20:11:52.251+08:00,532,1.064000,0,1000,4,1001,4,0.000000,4.000000,1.000000,4.000000
105325,2026-07-29T20:11:52.251+08:00,533,1.066000,0,999,4,1001,2,-1.000000,4.000000,1.000000,2.000000
105326,2026-07-29T20:11:52.251+08:00,534,1.068000,0,1000,4,999,2,0.000000,4.000000,-1.000000,2.000000
105327,2026-07-29T20:11:52.253+08:00,535,1.070000,0,1000,4,996,2,0.000000,4.000000,-4.000000,2.000000
105328,2026-07-29T20:11:52.253+08:00,536,1.072000,0,998,4,997,2,-2.000000,4.000000,-3.000000,2.000000
105329,2026-07-29T20:11:52.253+08:00,537,1.074000,0,998,4,1001,2,-2.000000,4.000000,1.000000,2.000000
105330,2026-07-29T20:11:52.255+08:00,538,1.076000,0,1000,4,1003,2,0.000000,4.000000,3.000000,2.000000
105331,2026-07-29T20:11:52.255+08:00,539,1.078000,0,1003,4,1001,2,3.000000,4.000000,1.000000,2.000000
105332,2026-07-29T20:11:52.266+08:00,540,1.080000,0,1002,4,998,2,2.000000,4.000000,-2.000000,2.000000
105333,2026-07-29T20:11:52.266+08:00,541,1.082000,0,998,2,997,2,-2.000000,2.000000,-3.000000,2.000000
105334,2026-07-29T20:11:52.266+08:00,542,1.084000,0,996,2,998,2,-4.000000,2.000000,-2.000000,2.000000
105335,2026-07-29T20:11:52.273+08:00,543,1.086000,0,998,2,1000,2,-2.000000,2.000000,0.000000,2.000000
105336,2026-07-29T20:11:52.273+08:00,544,1.088000,0,1001,2,1001,2,1.000000,2.000000,1.000000,2.000000
105337,2026-07-29T20:11:52.273+08:00,545,1.090000,0,1002,2,1001,2,2.000000,2.000000,1.000000,2.000000
105338,2026-07-29T20:11:52.273+08:00,546,1.092000,0,1000,2,1000,2,0.000000,2.000000,0.000000,2.000000
105339,2026-07-29T20:11:52.283+08:00,547,1.094000,0,998,2,999,2,-2.000000,2.000000,-1.000000,2.000000
105340,2026-07-29T20:11:52.283+08:00,548,1.096000,0,999,2,997,2,-1.000000,2.000000,-3.000000,2.000000
105341,2026-07-29T20:11:52.283+08:00,549,1.098000,0,1000,2,997,2,0.000000,2.000000,-3.000000,2.000000
105342,2026-07-29T20:11:52.283+08:00,550,1.100000,0,1000,2,1001,2,0.000000,2.000000,1.000000,2.000000
105343,2026-07-29T20:11:52.283+08:00,551,1.102000,0,999,2,1004,2,-1.000000,2.000000,4.000000,2.000000
105344,2026-07-29T20:11:52.283+08:00,552,1.104000,0,998,2,1002,2,-2.000000,2.000000,2.000000,2.000000
105345,2026-07-29T20:11:52.320+08:00,553,1.106000,0,999,2,997,2,-1.000000,2.000000,-3.000000,2.000000
105346,2026-07-29T20:11:52.320+08:00,554,1.108000,0,1002,2,995,2,2.000000,2.000000,-5.000000,2.000000
105347,2026-07-29T20:11:52.320+08:00,555,1.110000,0,1001,2,998,2,1.000000,2.000000,-2.000000,2.000000
105348,2026-07-29T20:11:52.320+08:00,556,1.112000,0,999,2,1003,2,-1.000000,2.000000,3.000000,2.000000
105349,2026-07-29T20:11:52.320+08:00,557,1.114000,0,998,2,1003,2,-2.000000,2.000000,3.000000,2.000000
105350,2026-07-29T20:11:52.320+08:00,558,1.116000,0,999,2,1000,2,-1.000000,2.000000,0.000000,2.000000
105351,2026-07-29T20:11:52.320+08:00,559,1.118000,0,1000,2,998,2,0.000000,2.000000,-2.000000,2.000000
105352,2026-07-29T20:11:52.320+08:00,560,1.120000,0,1000,2,997,2,0.000000,2.000000,-3.000000,2.000000
105353,2026-07-29T20:11:52.320+08:00,561,1.122000,0,1000,2,997,2,0.000000,2.000000,-3.000000,2.000000
105354,2026-07-29T20:11:52.320+08:00,562,1.124000,0,1000,2,999,2,0.000000,2.000000,-1.000000,2.000000
105355,2026-07-29T20:11:52.320+08:00,563,1.126000,0,1000,2,1002,2,0.000000,2.000000,2.000000,2.000000
105356,2026-07-29T20:11:52.320+08:00,564,1.128000,0,999,2,1003,2,-1.000000,2.000000,3.000000,2.000000
105357,2026-07-29T20:11:52.320+08:00,565,1.130000,0,998,2,1001,2,-2.000000,2.000000,1.000000,2.000000
105358,2026-07-29T20:11:52.320+08:00,566,1.132000,0,998,2,997,2,-2.000000,2.000000,-3.000000,2.000000
105359,2026-07-29T20:11:52.320+08:00,567,1.134000,0,1001,2,997,2,1.000000,2.000000,-3.000000,2.000000
105360,2026-07-29T20:11:52.320+08:00,568,1.136000,0,1002,2,1000,2,2.000000,2.000000,0.000000,2.000000
105361,2026-07-29T20:11:52.320+08:00,569,1.138000,0,1000,2,1001,2,0.000000,2.000000,1.000000,2.000000
105362,2026-07-29T20:11:52.323+08:00,570,1.140000,0,997,2,1000,2,-3.000000,2.000000,0.000000,2.000000
105363,2026-07-29T20:11:52.326+08:00,571,1.142000,0,996,2,998,2,-4.000000,2.000000,-2.000000,2.000000
105364,2026-07-29T20:11:52.326+08:00,572,1.144000,0,1000,2,1000,2,0.000000,2.000000,0.000000,2.000000
105365,2026-07-29T20:11:52.326+08:00,573,1.146000,0,1004,2,1003,2,4.000000,2.000000,3.000000,2.000000
105366,2026-07-29T20:11:52.329+08:00,574,1.148000,0,1003,2,1002,2,3.000000,2.000000,2.000000,2.000000
105367,2026-07-29T20:11:52.329+08:00,575,1.150000,0,997,2,997,2,-3.000000,2.000000,-3.000000,2.000000
105368,2026-07-29T20:11:52.329+08:00,576,1.152000,0,993,2,993,2,-7.000000,2.000000,-7.000000,2.000000
105369,2026-07-29T20:11:52.344+08:00,577,1.154000,0,997,2,997,2,-3.000000,2.000000,-3.000000,2.000000
105370,2026-07-29T20:11:52.344+08:00,578,1.156000,0,1004,2,1004,2,4.000000,2.000000,4.000000,2.000000
105371,2026-07-29T20:11:52.344+08:00,579,1.158000,0,1006,2,1005,2,6.000000,2.000000,5.000000,2.000000
105372,2026-07-29T20:11:52.344+08:00,580,1.160000,0,1000,2,1000,2,0.000000,2.000000,0.000000,2.000000
105373,2026-07-29T20:11:52.344+08:00,581,1.162000,0,993,2,996,2,-7.000000,2.000000,-4.000000,2.000000
105374,2026-07-29T20:11:52.344+08:00,582,1.164000,0,993,2,996,2,-7.000000,2.000000,-4.000000,2.000000
105375,2026-07-29T20:11:52.351+08:00,583,1.166000,0,1002,2,999,2,2.000000,2.000000,-1.000000,2.000000
105376,2026-07-29T20:11:52.351+08:00,584,1.168000,0,1008,2,1000,2,8.000000,2.000000,0.000000,2.000000
105377,2026-07-29T20:11:52.357+08:00,585,1.170000,0,1004,2,1000,2,4.000000,2.000000,0.000000,2.000000
105378,2026-07-29T20:11:52.357+08:00,586,1.172000,0,995,2,1001,2,-5.000000,2.000000,1.000000,2.000000
105379,2026-07-29T20:11:52.357+08:00,587,1.174000,0,992,2,1002,2,-8.000000,2.000000,2.000000,2.000000
105380,2026-07-29T20:11:52.358+08:00,588,1.176000,0,999,2,1000,2,-1.000000,2.000000,0.000000,2.000000
105381,2026-07-29T20:11:52.358+08:00,589,1.178000,0,1004,2,997,2,4.000000,2.000000,-3.000000,2.000000
105382,2026-07-29T20:11:52.358+08:00,590,1.180000,0,1002,2,996,2,2.000000,2.000000,-4.000000,2.000000
105383,2026-07-29T20:11:52.395+08:00,591,1.182000,0,997,2,1000,2,-3.000000,2.000000,0.000000,2.000000
105384,2026-07-29T20:11:52.396+08:00,592,1.184000,0,998,2,1003,2,-2.000000,2.000000,3.000000,2.000000
105385,2026-07-29T20:11:52.396+08:00,593,1.186000,0,1002,2,1001,2,2.000000,2.000000,1.000000,2.000000
105386,2026-07-29T20:11:52.396+08:00,594,1.188000,0,1001,2,997,2,1.000000,2.000000,-3.000000,2.000000
105387,2026-07-29T20:11:52.396+08:00,595,1.190000,0,996,2,997,2,-4.000000,2.000000,-3.000000,2.000000
105388,2026-07-29T20:11:52.396+08:00,596,1.192000,0,994,2,1002,2,-6.000000,2.000000,2.000000,2.000000
105389,2026-07-29T20:11:52.396+08:00,597,1.194000,0,1000,2,1003,2,0.000000,2.000000,3.000000,2.000000
105390,2026-07-29T20:11:52.396+08:00,598,1.196000,0,1005,2,999,2,5.000000,2.000000,-1.000000,2.000000
105391,2026-07-29T20:11:52.396+08:00,599,1.198000,0,1003,2,995,2,3.000000,2.000000,-5.000000,2.000000
105392,2026-07-29T20:11:52.396+08:00,600,1.200000,0,997,2,998,2,-3.000000,2.000000,-2.000000,2.000000
105393,2026-07-29T20:11:52.396+08:00,601,1.202000,0,995,2,1002,2,-5.000000,2.000000,2.000000,2.000000
105394,2026-07-29T20:11:52.396+08:00,602,1.204000,0,999,2,1003,2,-1.000000,2.000000,3.000000,2.000000
105395,2026-07-29T20:11:52.396+08:00,603,1.206000,0,1001,2,1000,2,1.000000,2.000000,0.000000,2.000000
105396,2026-07-29T20:11:52.396+08:00,604,1.208000,0,1000,2,997,2,0.000000,2.000000,-3.000000,2.000000
105397,2026-07-29T20:11:52.396+08:00,605,1.210000,0,999,2,998,2,-1.000000,2.000000,-2.000000,2.000000
105398,2026-07-29T20:11:52.396+08:00,606,1.212000,0,999,2,1000,2,-1.000000,2.000000,0.000000,2.000000
105399,2026-07-29T20:11:52.400+08:00,607,1.214000,0,1001,2,999,2,1.000000,2.000000,-1.000000,2.000000
105400,2026-07-29T20:11:52.400+08:00,608,1.216000,0,1000,2,998,2,0.000000,2.000000,-2.000000,2.000000
105401,2026-07-29T20:11:52.400+08:00,609,1.218000,0,998,2,1000,2,-2.000000,2.000000,0.000000,2.000000
105402,2026-07-29T20:11:52.402+08:00,610,1.220000,0,997,2,1002,2,-3.000000,2.000000,2.000000,2.000000
105403,2026-07-29T20:11:52.402+08:00,611,1.222000,0,999,2,1001,2,-1.000000,2.000000,1.000000,2.000000
105404,2026-07-29T20:11:52.402+08:00,612,1.224000,0,1003,2,997,2,3.000000,2.000000,-3.000000,2.000000
105405,2026-07-29T20:11:52.405+08:00,613,1.226000,0,1003,2,997,2,3.000000,2.000000,-3.000000,2.000000
105406,2026-07-29T20:11:52.405+08:00,614,1.228000,0,997,2,1000,2,-3.000000,2.000000,0.000000,2.000000
105407,2026-07-29T20:11:52.415+08:00,615,1.230000,0,992,2,1002,2,-8.000000,2.000000,2.000000,2.000000
105408,2026-07-29T20:11:52.415+08:00,616,1.232000,0,996,2,1000,2,-4.000000,2.000000,0.000000,2.000000
105409,2026-07-29T20:11:52.415+08:00,617,1.234000,0,1005,2,998,2,5.000000,2.000000,-2.000000,2.000000
105410,2026-07-29T20:11:52.422+08:00,618,1.236000,0,1009,2,999,2,9.000000,2.000000,-1.000000,2.000000
105411,2026-07-29T20:11:52.422+08:00,619,1.238000,0,1002,2,1001,2,2.000000,2.000000,1.000000,2.000000
105412,2026-07-29T20:11:52.422+08:00,620,1.240000,0,991,2,1001,2,-9.000000,2.000000,1.000000,2.000000
105413,2026-07-29T20:11:52.422+08:00,621,1.242000,0,989,2,998,2,-11.000000,2.000000,-2.000000,2.000000
105414,2026-07-29T20:11:52.433+08:00,622,1.244000,0,999,2,997,2,-1.000000,2.000000,-3.000000,2.000000
105415,2026-07-29T20:11:52.433+08:00,623,1.246000,0,1010,2,1000,2,10.000000,2.000000,0.000000,2.000000
105416,2026-07-29T20:11:52.433+08:00,624,1.248000,0,1009,4,1002,2,9.000000,4.000000,2.000000,2.000000
105417,2026-07-29T20:11:52.433+08:00,625,1.250000,0,997,4,999,2,-3.000000,4.000000,-1.000000,2.000000
105418,2026-07-29T20:11:52.438+08:00,626,1.252000,0,990,4,997,2,-10.000000,4.000000,-3.000000,2.000000
105419,2026-07-29T20:11:52.438+08:00,627,1.254000,0,996,4,1000,2,-4.000000,4.000000,0.000000,2.000000
105420,2026-07-29T20:11:52.438+08:00,628,1.256000,0,1004,4,1003,2,4.000000,4.000000,3.000000,2.000000
105421,2026-07-29T20:11:52.438+08:00,629,1.258000,0,1002,4,1000,2,2.000000,4.000000,0.000000,2.000000
105422,2026-07-29T20:11:52.453+08:00,630,1.260000,0,997,4,996,2,-3.000000,4.000000,-4.000000,2.000000
105423,2026-07-29T20:11:52.453+08:00,631,1.262000,0,999,4,995,2,-1.000000,4.000000,-5.000000,2.000000
105424,2026-07-29T20:11:52.453+08:00,632,1.264000,0,1006,4,1001,2,6.000000,4.000000,1.000000,2.000000
105425,2026-07-29T20:11:52.453+08:00,633,1.266000,0,1004,4,1005,2,4.000000,4.000000,5.000000,2.000000
105426,2026-07-29T20:11:52.453+08:00,634,1.268000,0,993,4,1002,2,-7.000000,4.000000,2.000000,2.000000
105427,2026-07-29T20:11:52.453+08:00,635,1.270000,0,988,4,996,2,-12.000000,4.000000,-4.000000,2.000000
105428,2026-07-29T20:11:52.453+08:00,636,1.272000,0,999,4,994,2,-1.000000,4.000000,-6.000000,2.000000
105429,2026-07-29T20:11:52.473+08:00,637,1.274000,0,1011,4,999,2,11.000000,4.000000,-1.000000,2.000000
105430,2026-07-29T20:11:52.473+08:00,638,1.276000,0,1009,4,1004,2,9.000000,4.000000,4.000000,2.000000
105431,2026-07-29T20:11:52.473+08:00,639,1.278000,0,994,4,1004,2,-6.000000,4.000000,4.000000,2.000000
105432,2026-07-29T20:11:52.473+08:00,640,1.280000,0,987,4,999,2,-13.000000,4.000000,-1.000000,2.000000
105433,2026-07-29T20:11:52.473+08:00,641,1.282000,0,996,4,995,2,-4.000000,4.000000,-5.000000,2.000000
105434,2026-07-29T20:11:52.473+08:00,642,1.284000,0,1008,4,996,2,8.000000,4.000000,-4.000000,2.000000
105435,2026-07-29T20:11:52.473+08:00,643,1.286000,0,1009,4,1001,2,9.000000,4.000000,1.000000,2.000000
105436,2026-07-29T20:11:52.473+08:00,644,1.288000,0,997,4,1004,2,-3.000000,4.000000,4.000000,2.000000
105437,2026-07-29T20:11:52.475+08:00,645,1.290000,0,990,4,1002,2,-10.000000,4.000000,2.000000,2.000000
105438,2026-07-29T20:11:52.475+08:00,646,1.292000,0,996,4,998,2,-4.000000,4.000000,-2.000000,2.000000
105439,2026-07-29T20:11:52.475+08:00,647,1.294000,0,1006,4,996,2,6.000000,4.000000,-4.000000,2.000000
105440,2026-07-29T20:11:52.478+08:00,648,1.296000,0,1006,4,998,2,6.000000,4.000000,-2.000000,2.000000
105441,2026-07-29T20:11:52.478+08:00,649,1.298000,0,998,4,1001,2,-2.000000,4.000000,1.000000,2.000000
105442,2026-07-29T20:11:52.478+08:00,650,1.300000,0,993,4,1002,2,-7.000000,4.000000,2.000000,2.000000
105443,2026-07-29T20:11:52.480+08:00,651,1.302000,0,996,4,1000,2,-4.000000,4.000000,0.000000,2.000000
105444,2026-07-29T20:11:52.490+08:00,652,1.304000,0,1001,4,998,2,1.000000,4.000000,-2.000000,2.000000
105445,2026-07-29T20:11:52.490+08:00,653,1.306000,0,1003,4,998,2,3.000000,4.000000,-2.000000,2.000000
105446,2026-07-29T20:11:52.490+08:00,654,1.308000,0,1001,4,999,2,1.000000,4.000000,-1.000000,2.000000
105447,2026-07-29T20:11:52.498+08:00,655,1.310000,0,1000,4,1000,2,0.000000,4.000000,0.000000,2.000000
105448,2026-07-29T20:11:52.498+08:00,656,1.312000,0,999,4,1000,2,-1.000000,4.000000,0.000000,2.000000
105449,2026-07-29T20:11:52.498+08:00,657,1.314000,0,996,4,1000,2,-4.000000,4.000000,0.000000,2.000000
105450,2026-07-29T20:11:52.498+08:00,658,1.316000,0,997,4,1001,2,-3.000000,4.000000,1.000000,2.000000
105451,2026-07-29T20:11:52.498+08:00,659,1.318000,0,1001,4,1001,2,1.000000,4.000000,1.000000,2.000000
105452,2026-07-29T20:11:52.508+08:00,660,1.320000,0,1004,4,1000,2,4.000000,4.000000,0.000000,2.000000
105453,2026-07-29T20:11:52.508+08:00,661,1.322000,0,1002,4,997,2,2.000000,4.000000,-3.000000,2.000000
105454,2026-07-29T20:11:52.508+08:00,662,1.324000,0,996,4,997,2,-4.000000,4.000000,-3.000000,2.000000
105455,2026-07-29T20:11:52.508+08:00,663,1.326000,0,994,4,999,2,-6.000000,4.000000,-1.000000,2.000000
105456,2026-07-29T20:11:52.508+08:00,664,1.328000,0,999,4,1002,2,-1.000000,4.000000,2.000000,2.000000
105457,2026-07-29T20:11:52.508+08:00,665,1.330000,0,1005,4,1003,2,5.000000,4.000000,3.000000,2.000000
105458,2026-07-29T20:11:52.551+08:00,666,1.332000,0,1004,4,1000,2,4.000000,4.000000,0.000000,2.000000
105459,2026-07-29T20:11:52.551+08:00,667,1.334000,0,997,4,997,2,-3.000000,4.000000,-3.000000,2.000000
105460,2026-07-29T20:11:52.551+08:00,668,1.336000,0,992,4,998,2,-8.000000,4.000000,-2.000000,2.000000
105461,2026-07-29T20:11:52.551+08:00,669,1.338000,0,996,6,1001,2,-4.000000,6.000000,1.000000,2.000000
105462,2026-07-29T20:11:52.551+08:00,670,1.340000,0,1004,6,1001,2,4.000000,6.000000,1.000000,2.000000
105463,2026-07-29T20:11:52.551+08:00,671,1.342000,0,1007,6,997,2,7.000000,6.000000,-3.000000,2.000000
105464,2026-07-29T20:11:52.551+08:00,672,1.344000,0,1002,6,996,2,2.000000,6.000000,-4.000000,2.000000
105465,2026-07-29T20:11:52.551+08:00,673,1.346000,0,994,6,1000,2,-6.000000,6.000000,0.000000,2.000000
105466,2026-07-29T20:11:52.551+08:00,674,1.348000,0,993,6,1005,2,-7.000000,6.000000,5.000000,2.000000
105467,2026-07-29T20:11:52.551+08:00,675,1.350000,0,998,6,1003,2,-2.000000,6.000000,3.000000,2.000000
105468,2026-07-29T20:11:52.551+08:00,676,1.352000,0,1004,6,996,2,4.000000,6.000000,-4.000000,2.000000
105469,2026-07-29T20:11:52.551+08:00,677,1.354000,0,1005,6,993,2,5.000000,6.000000,-7.000000,2.000000
105470,2026-07-29T20:11:52.551+08:00,678,1.356000,0,1000,6,997,2,0.000000,6.000000,-3.000000,2.000000
105471,2026-07-29T20:11:52.551+08:00,679,1.358000,0,995,6,1003,2,-5.000000,6.000000,3.000000,2.000000
105472,2026-07-29T20:11:52.551+08:00,680,1.360000,0,997,6,1003,2,-3.000000,6.000000,3.000000,2.000000
105473,2026-07-29T20:11:52.551+08:00,681,1.362000,0,1001,6,1001,2,1.000000,6.000000,1.000000,2.000000
105474,2026-07-29T20:11:52.551+08:00,682,1.364000,0,1003,6,999,2,3.000000,6.000000,-1.000000,2.000000
105475,2026-07-29T20:11:52.551+08:00,683,1.366000,0,1000,6,999,2,0.000000,6.000000,-1.000000,2.000000
105476,2026-07-29T20:11:52.551+08:00,684,1.368000,0,997,6,999,2,-3.000000,6.000000,-1.000000,2.000000
105477,2026-07-29T20:11:52.552+08:00,685,1.370000,0,996,6,997,2,-4.000000,6.000000,-3.000000,2.000000
105478,2026-07-29T20:11:52.552+08:00,686,1.372000,0,999,6,996,2,-1.000000,6.000000,-4.000000,2.000000
105479,2026-07-29T20:11:52.552+08:00,687,1.374000,0,1003,6,999,2,3.000000,6.000000,-1.000000,2.000000
105480,2026-07-29T20:11:52.555+08:00,688,1.376000,0,1003,6,1004,2,3.000000,6.000000,4.000000,2.000000
105481,2026-07-29T20:11:52.555+08:00,689,1.378000,0,1000,6,1006,2,0.000000,6.000000,6.000000,2.000000
105482,2026-07-29T20:11:52.563+08:00,690,1.380000,0,996,6,1001,2,-4.000000,6.000000,1.000000,2.000000
105483,2026-07-29T20:11:52.566+08:00,691,1.382000,0,996,6,993,2,-4.000000,6.000000,-7.000000,2.000000
105484,2026-07-29T20:11:52.566+08:00,692,1.384000,0,999,6,991,2,-1.000000,6.000000,-9.000000,2.000000
105485,2026-07-29T20:11:52.566+08:00,693,1.386000,0,1002,6,998,2,2.000000,6.000000,-2.000000,2.000000
105486,2026-07-29T20:11:52.576+08:00,694,1.388000,0,1003,6,1006,2,3.000000,6.000000,6.000000,2.000000
105487,2026-07-29T20:11:52.576+08:00,695,1.390000,0,1001,6,1006,2,1.000000,6.000000,6.000000,2.000000
105488,2026-07-29T20:11:52.576+08:00,696,1.392000,0,999,6,999,2,-1.000000,6.000000,-1.000000,2.000000
105489,2026-07-29T20:11:52.581+08:00,697,1.394000,0,996,6,995,2,-4.000000,6.000000,-5.000000,2.000000
105490,2026-07-29T20:11:52.581+08:00,698,1.396000,0,996,6,997,2,-4.000000,6.000000,-3.000000,2.000000
105491,2026-07-29T20:11:52.581+08:00,699,1.398000,0,999,6,1001,2,-1.000000,6.000000,1.000000,2.000000
105492,2026-07-29T20:11:52.588+08:00,700,1.400000,0,1003,6,1001,2,3.000000,6.000000,1.000000,2.000000
105493,2026-07-29T20:11:52.588+08:00,701,1.402000,0,1004,6,998,2,4.000000,6.000000,-2.000000,2.000000
105494,2026-07-29T20:11:52.588+08:00,702,1.404000,0,1001,6,997,2,1.000000,6.000000,-3.000000,2.000000
105495,2026-07-29T20:11:52.588+08:00,703,1.406000,0,996,6,1001,2,-4.000000,6.000000,1.000000,2.000000
105496,2026-07-29T20:11:52.588+08:00,704,1.408000,0,994,6,1004,2,-6.000000,6.000000,4.000000,2.000000
105497,2026-07-29T20:11:52.611+08:00,705,1.410000,0,998,6,1002,2,-2.000000,6.000000,2.000000,2.000000
105498,2026-07-29T20:11:52.611+08:00,706,1.412000,0,1003,6,997,2,3.000000,6.000000,-3.000000,2.000000
105499,2026-07-29T20:11:52.611+08:00,707,1.414000,0,1005,6,994,2,5.000000,6.000000,-6.000000,2.000000
105500,2026-07-29T20:11:52.611+08:00,708,1.416000,0,1001,6,997,2,1.000000,6.000000,-3.000000,2.000000
105501,2026-07-29T20:11:52.611+08:00,709,1.418000,0,996,6,1002,2,-4.000000,6.000000,2.000000,2.000000
105502,2026-07-29T20:11:52.611+08:00,710,1.420000,0,995,6,1004,2,-5.000000,6.000000,4.000000,2.000000
105503,2026-07-29T20:11:52.611+08:00,711,1.422000,0,999,6,1002,2,-1.000000,6.000000,2.000000,2.000000
105504,2026-07-29T20:11:52.611+08:00,712,1.424000,0,1003,6,998,2,3.000000,6.000000,-2.000000,2.000000
105505,2026-07-29T20:11:52.611+08:00,713,1.426000,0,1003,6,996,2,3.000000,6.000000,-4.000000,2.000000
105506,2026-07-29T20:11:52.611+08:00,714,1.428000,0,998,6,997,2,-2.000000,6.000000,-3.000000,2.000000
105507,2026-07-29T20:11:52.636+08:00,715,1.430000,0,996,6,1000,2,-4.000000,6.000000,0.000000,2.000000
105508,2026-07-29T20:11:52.636+08:00,716,1.432000,0,999,6,1002,2,-1.000000,6.000000,2.000000,2.000000
105509,2026-07-29T20:11:52.636+08:00,717,1.434000,0,1004,6,1003,2,4.000000,6.000000,3.000000,2.000000
105510,2026-07-29T20:11:52.636+08:00,718,1.436000,0,1004,6,1001,2,4.000000,6.000000,1.000000,2.000000
105511,2026-07-29T20:11:52.636+08:00,719,1.438000,0,997,6,997,2,-3.000000,6.000000,-3.000000,2.000000
105512,2026-07-29T20:11:52.636+08:00,720,1.440000,0,991,6,995,2,-9.000000,6.000000,-5.000000,2.000000
105513,2026-07-29T20:11:52.636+08:00,721,1.442000,0,995,6,998,2,-5.000000,6.000000,-2.000000,2.000000
105514,2026-07-29T20:11:52.636+08:00,722,1.444000,0,1007,6,1003,2,7.000000,6.000000,3.000000,2.000000
105515,2026-07-29T20:11:52.636+08:00,723,1.446000,0,1011,6,1004,2,11.000000,6.000000,4.000000,2.000000
105516,2026-07-29T20:11:52.636+08:00,724,1.448000,0,1001,6,1000,2,1.000000,6.000000,0.000000,2.000000
105517,2026-07-29T20:11:52.636+08:00,725,1.450000,0,990,6,995,2,-10.000000,6.000000,-5.000000,2.000000
105518,2026-07-29T20:11:52.636+08:00,726,1.452000,0,989,6,996,2,-11.000000,6.000000,-4.000000,2.000000
105519,2026-07-29T20:11:52.640+08:00,727,1.454000,0,999,6,1001,2,-1.000000,6.000000,1.000000,2.000000
105520,2026-07-29T20:11:52.640+08:00,728,1.456000,0,1008,6,1005,2,8.000000,6.000000,5.000000,2.000000
105521,2026-07-29T20:11:52.640+08:00,729,1.458000,0,1007,6,1001,2,7.000000,6.000000,1.000000,2.000000
105522,2026-07-29T20:11:52.643+08:00,730,1.460000,0,1000,6,995,2,0.000000,6.000000,-5.000000,2.000000
105523,2026-07-29T20:11:52.643+08:00,731,1.462000,0,994,6,995,2,-6.000000,6.000000,-5.000000,2.000000
105524,2026-07-29T20:11:52.643+08:00,732,1.464000,0,993,6,1001,2,-7.000000,6.000000,1.000000,2.000000
105525,2026-07-29T20:11:52.645+08:00,733,1.466000,0,997,6,1006,4,-3.000000,6.000000,6.000000,4.000000
105526,2026-07-29T20:11:52.645+08:00,734,1.468000,0,1003,6,1002,4,3.000000,6.000000,2.000000,4.000000
105527,2026-07-29T20:11:52.664+08:00,735,1.470000,0,1006,6,996,4,6.000000,6.000000,-4.000000,4.000000
105528,2026-07-29T20:11:52.664+08:00,736,1.472000,0,1003,6,995,4,3.000000,6.000000,-5.000000,4.000000
105529,2026-07-29T20:11:52.664+08:00,737,1.474000,0,996,6,999,4,-4.000000,6.000000,-1.000000,4.000000
105530,2026-07-29T20:11:52.664+08:00,738,1.476000,0,992,6,1003,4,-8.000000,6.000000,3.000000,4.000000
105531,2026-07-29T20:11:52.664+08:00,739,1.478000,0,996,6,1001,4,-4.000000,6.000000,1.000000,4.000000
105532,2026-07-29T20:11:52.664+08:00,740,1.480000,0,1004,6,998,4,4.000000,6.000000,-2.000000,4.000000
105533,2026-07-29T20:11:52.664+08:00,741,1.482000,0,1006,6,998,4,6.000000,6.000000,-2.000000,4.000000
105534,2026-07-29T20:11:52.713+08:00,742,1.484000,0,1001,6,1000,4,1.000000,6.000000,0.000000,4.000000
105535,2026-07-29T20:11:52.713+08:00,743,1.486000,0,994,6,1000,4,-6.000000,6.000000,0.000000,4.000000
105536,2026-07-29T20:11:52.713+08:00,744,1.488000,0,995,6,999,4,-5.000000,6.000000,-1.000000,4.000000
105537,2026-07-29T20:11:52.713+08:00,745,1.490000,0,1000,6,998,4,0.000000,6.000000,-2.000000,4.000000
105538,2026-07-29T20:11:52.713+08:00,746,1.492000,0,1004,6,999,4,4.000000,6.000000,-1.000000,4.000000
105539,2026-07-29T20:11:52.713+08:00,747,1.494000,0,1002,6,1001,4,2.000000,6.000000,1.000000,4.000000
105540,2026-07-29T20:11:52.713+08:00,748,1.496000,0,998,6,1002,4,-2.000000,6.000000,2.000000,4.000000
105541,2026-07-29T20:11:52.713+08:00,749,1.498000,0,998,6,999,4,-2.000000,6.000000,-1.000000,4.000000
105542,2026-07-29T20:11:52.713+08:00,750,1.500000,0,1000,6,997,4,0.000000,6.000000,-3.000000,4.000000
105543,2026-07-29T20:11:52.713+08:00,751,1.502000,0,1000,6,999,4,0.000000,6.000000,-1.000000,4.000000
105544,2026-07-29T20:11:52.713+08:00,752,1.504000,0,997,6,1002,4,-3.000000,6.000000,2.000000,4.000000
105545,2026-07-29T20:11:52.713+08:00,753,1.506000,0,996,6,1001,4,-4.000000,6.000000,1.000000,4.000000
105546,2026-07-29T20:11:52.713+08:00,754,1.508000,0,1001,6,997,4,1.000000,6.000000,-3.000000,4.000000
105547,2026-07-29T20:11:52.713+08:00,755,1.510000,0,1007,6,996,4,7.000000,6.000000,-4.000000,4.000000
105548,2026-07-29T20:11:52.713+08:00,756,1.512000,0,1004,6,999,4,4.000000,6.000000,-1.000000,4.000000
105549,2026-07-29T20:11:52.713+08:00,757,1.514000,0,995,6,1003,4,-5.000000,6.000000,3.000000,4.000000
105550,2026-07-29T20:11:52.713+08:00,758,1.516000,0,991,6,1003,4,-9.000000,6.000000,3.000000,4.000000
105551,2026-07-29T20:11:52.713+08:00,759,1.518000,0,997,6,999,4,-3.000000,6.000000,-1.000000,4.000000
105552,2026-07-29T20:11:52.713+08:00,760,1.520000,0,1005,6,995,4,5.000000,6.000000,-5.000000,4.000000
105553,2026-07-29T20:11:52.713+08:00,761,1.522000,0,1006,6,996,4,6.000000,6.000000,-4.000000,4.000000
105554,2026-07-29T20:11:52.713+08:00,762,1.524000,0,1001,6,1001,4,1.000000,6.000000,1.000000,4.000000
105555,2026-07-29T20:11:52.713+08:00,763,1.526000,0,996,6,1004,4,-4.000000,6.000000,4.000000,4.000000
105556,2026-07-29T20:11:52.713+08:00,764,1.528000,0,995,6,1002,4,-5.000000,6.000000,2.000000,4.000000
105557,2026-07-29T20:11:52.713+08:00,765,1.530000,0,998,6,998,4,-2.000000,6.000000,-2.000000,4.000000
105558,2026-07-29T20:11:52.716+08:00,766,1.532000,0,1001,6,997,4,1.000000,6.000000,-3.000000,4.000000
105559,2026-07-29T20:11:52.716+08:00,767,1.534000,0,1001,6,999,4,1.000000,6.000000,-1.000000,4.000000
105560,2026-07-29T20:11:52.716+08:00,768,1.536000,0,1001,6,1000,4,1.000000,6.000000,0.000000,4.000000
105561,2026-07-29T20:11:52.719+08:00,769,1.538000,0,1001,6,999,2,1.000000,6.000000,-1.000000,2.000000
105562,2026-07-29T20:11:52.719+08:00,770,1.540000,0,1000,6,998,2,0.000000,6.000000,-2.000000,2.000000
105563,2026-07-29T20:11:52.719+08:00,771,1.542000,0,998,6,1000,2,-2.000000,6.000000,0.000000,2.000000
105564,2026-07-29T20:11:52.740+08:00,772,1.544000,0,997,6,1002,2,-3.000000,6.000000,2.000000,2.000000
105565,2026-07-29T20:11:52.740+08:00,773,1.546000,0,998,6,1002,2,-2.000000,6.000000,2.000000,2.000000
105566,2026-07-29T20:11:52.740+08:00,774,1.548000,0,1000,6,999,2,0.000000,6.000000,-1.000000,2.000000
105567,2026-07-29T20:11:52.740+08:00,775,1.550000,0,1001,4,995,2,1.000000,4.000000,-5.000000,2.000000
105568,2026-07-29T20:11:52.740+08:00,776,1.552000,0,1001,4,995,2,1.000000,4.000000,-5.000000,2.000000
105569,2026-07-29T20:11:52.740+08:00,777,1.554000,0,1001,4,1000,2,1.000000,4.000000,0.000000,2.000000
105570,2026-07-29T20:11:52.740+08:00,778,1.556000,0,999,4,1006,2,-1.000000,4.000000,6.000000,2.000000
105571,2026-07-29T20:11:52.740+08:00,779,1.558000,0,996,4,1005,4,-4.000000,4.000000,5.000000,4.000000
105572,2026-07-29T20:11:52.747+08:00,780,1.560000,0,996,4,998,4,-4.000000,4.000000,-2.000000,4.000000
105573,2026-07-29T20:11:52.747+08:00,781,1.562000,0,1000,4,993,4,0.000000,4.000000,-7.000000,4.000000
105574,2026-07-29T20:11:52.747+08:00,782,1.564000,0,1004,4,995,4,4.000000,4.000000,-5.000000,4.000000
105575,2026-07-29T20:11:52.753+08:00,783,1.566000,0,1002,4,1001,4,2.000000,4.000000,1.000000,4.000000
105576,2026-07-29T20:11:52.753+08:00,784,1.568000,0,997,4,1005,4,-3.000000,4.000000,5.000000,4.000000
105577,2026-07-29T20:11:52.753+08:00,785,1.570000,0,995,4,1003,4,-5.000000,4.000000,3.000000,4.000000
105578,2026-07-29T20:11:52.753+08:00,786,1.572000,0,999,4,999,4,-1.000000,4.000000,-1.000000,4.000000
105579,2026-07-29T20:11:52.766+08:00,787,1.574000,0,1003,4,996,4,3.000000,4.000000,-4.000000,4.000000
105580,2026-07-29T20:11:52.766+08:00,788,1.576000,0,1002,4,997,4,2.000000,4.000000,-3.000000,4.000000
105581,2026-07-29T20:11:52.766+08:00,789,1.578000,0,998,4,1001,4,-2.000000,4.000000,1.000000,4.000000
105582,2026-07-29T20:11:52.766+08:00,790,1.580000,0,996,4,1002,4,-4.000000,4.000000,2.000000,4.000000
105583,2026-07-29T20:11:52.766+08:00,791,1.582000,0,999,4,1000,4,-1.000000,4.000000,0.000000,4.000000
105584,2026-07-29T20:11:52.766+08:00,792,1.584000,0,1002,4,997,4,2.000000,4.000000,-3.000000,4.000000
105585,2026-07-29T20:11:52.766+08:00,793,1.586000,0,1001,4,998,4,1.000000,4.000000,-2.000000,4.000000
105586,2026-07-29T20:11:52.766+08:00,794,1.588000,0,999,4,1003,4,-1.000000,4.000000,3.000000,4.000000
105587,2026-07-29T20:11:52.786+08:00,795,1.590000,0,999,4,1004,4,-1.000000,4.000000,4.000000,4.000000
105588,2026-07-29T20:11:52.786+08:00,796,1.592000,0,999,4,999,4,-1.000000,4.000000,-1.000000,4.000000
105589,2026-07-29T20:11:52.786+08:00,797,1.594000,0,999,4,994,4,-1.000000,4.000000,-6.000000,4.000000
105590,2026-07-29T20:11:52.786+08:00,798,1.596000,0,998,4,995,4,-2.000000,4.000000,-5.000000,4.000000
105591,2026-07-29T20:11:52.786+08:00,799,1.598000,0,1000,4,1002,4,0.000000,4.000000,2.000000,4.000000
105592,2026-07-29T20:11:52.786+08:00,800,1.600000,0,1003,4,1006,4,3.000000,4.000000,6.000000,4.000000
105593,2026-07-29T20:11:52.786+08:00,801,1.602000,0,1002,4,1002,4,2.000000,4.000000,2.000000,4.000000
105594,2026-07-29T20:11:52.790+08:00,802,1.604000,0,998,4,996,4,-2.000000,4.000000,-4.000000,4.000000
105595,2026-07-29T20:11:52.790+08:00,803,1.606000,0,994,4,995,4,-6.000000,4.000000,-5.000000,4.000000
105596,2026-07-29T20:11:52.790+08:00,804,1.608000,0,997,4,999,4,-3.000000,4.000000,-1.000000,4.000000
105597,2026-07-29T20:11:52.794+08:00,805,1.610000,0,1004,4,1002,4,4.000000,4.000000,2.000000,4.000000
105598,2026-07-29T20:11:52.794+08:00,806,1.612000,0,1006,4,1000,4,6.000000,4.000000,0.000000,4.000000
105599,2026-07-29T20:11:52.794+08:00,807,1.614000,0,1001,4,997,4,1.000000,4.000000,-3.000000,4.000000
105600,2026-07-29T20:11:52.796+08:00,808,1.616000,0,994,4,999,4,-6.000000,4.000000,-1.000000,4.000000
105601,2026-07-29T20:11:52.796+08:00,809,1.618000,0,994,4,1002,4,-6.000000,4.000000,2.000000,4.000000
105602,2026-07-29T20:11:52.816+08:00,810,1.620000,0,999,4,1002,4,-1.000000,4.000000,2.000000,4.000000
105603,2026-07-29T20:11:52.816+08:00,811,1.622000,0,1003,4,998,4,3.000000,4.000000,-2.000000,4.000000
105604,2026-07-29T20:11:52.816+08:00,812,1.624000,0,1003,4,995,4,3.000000,4.000000,-5.000000,4.000000
105605,2026-07-29T20:11:52.816+08:00,813,1.626000,0,1000,4,998,4,0.000000,4.000000,-2.000000,4.000000
105606,2026-07-29T20:11:52.816+08:00,814,1.628000,0,998,4,1003,4,-2.000000,4.000000,3.000000,4.000000
105607,2026-07-29T20:11:52.816+08:00,815,1.630000,0,997,4,1003,4,-3.000000,4.000000,3.000000,4.000000
105608,2026-07-29T20:11:52.816+08:00,816,1.632000,0,998,4,999,4,-2.000000,4.000000,-1.000000,4.000000
105609,2026-07-29T20:11:52.821+08:00,817,1.634000,0,1001,4,997,4,1.000000,4.000000,-3.000000,4.000000
105610,2026-07-29T20:11:52.821+08:00,818,1.636000,0,1002,4,999,4,2.000000,4.000000,-1.000000,4.000000
105611,2026-07-29T20:11:52.821+08:00,819,1.638000,0,1001,4,1000,4,1.000000,4.000000,0.000000,4.000000
105612,2026-07-29T20:11:52.861+08:00,820,1.640000,0,998,4,999,4,-2.000000,4.000000,-1.000000,4.000000
105613,2026-07-29T20:11:52.861+08:00,821,1.642000,0,998,4,998,4,-2.000000,4.000000,-2.000000,4.000000
105614,2026-07-29T20:11:52.861+08:00,822,1.644000,0,1000,4,1000,4,0.000000,4.000000,0.000000,4.000000
105615,2026-07-29T20:11:52.861+08:00,823,1.646000,0,1002,4,1002,2,2.000000,4.000000,2.000000,2.000000
105616,2026-07-29T20:11:52.861+08:00,824,1.648000,0,1001,4,1001,4,1.000000,4.000000,1.000000,4.000000
105617,2026-07-29T20:11:52.861+08:00,825,1.650000,0,997,4,999,2,-3.000000,4.000000,-1.000000,2.000000
105618,2026-07-29T20:11:52.861+08:00,826,1.652000,0,996,4,997,2,-4.000000,4.000000,-3.000000,2.000000
105619,2026-07-29T20:11:52.861+08:00,827,1.654000,0,999,4,998,2,-1.000000,4.000000,-2.000000,2.000000
105620,2026-07-29T20:11:52.861+08:00,828,1.656000,0,1003,4,1000,2,3.000000,4.000000,0.000000,2.000000
105621,2026-07-29T20:11:52.861+08:00,829,1.658000,0,1003,4,1000,2,3.000000,4.000000,0.000000,2.000000
105622,2026-07-29T20:11:52.861+08:00,830,1.660000,0,1000,4,1001,2,0.000000,4.000000,1.000000,2.000000
105623,2026-07-29T20:11:52.861+08:00,831,1.662000,0,996,4,1001,2,-4.000000,4.000000,1.000000,2.000000
105624,2026-07-29T20:11:52.861+08:00,832,1.664000,0,996,4,1001,2,-4.000000,4.000000,1.000000,2.000000
105625,2026-07-29T20:11:52.861+08:00,833,1.666000,0,998,4,998,2,-2.000000,4.000000,-2.000000,2.000000
105626,2026-07-29T20:11:52.861+08:00,834,1.668000,0,1001,4,996,2,1.000000,4.000000,-4.000000,2.000000
105627,2026-07-29T20:11:52.861+08:00,835,1.670000,0,1003,4,997,2,3.000000,4.000000,-3.000000,2.000000
105628,2026-07-29T20:11:52.861+08:00,836,1.672000,0,1003,4,1002,2,3.000000,4.000000,2.000000,2.000000
105629,2026-07-29T20:11:52.861+08:00,837,1.674000,0,1000,4,1004,2,0.000000,4.000000,4.000000,2.000000
105630,2026-07-29T20:11:52.861+08:00,838,1.676000,0,996,4,1001,2,-4.000000,4.000000,1.000000,2.000000
105631,2026-07-29T20:11:52.861+08:00,839,1.678000,0,995,4,997,2,-5.000000,4.000000,-3.000000,2.000000
105632,2026-07-29T20:11:52.866+08:00,840,1.680000,0,999,4,996,2,-1.000000,4.000000,-4.000000,2.000000
105633,2026-07-29T20:11:52.866+08:00,841,1.682000,0,1003,4,999,2,3.000000,4.000000,-1.000000,2.000000
105634,2026-07-29T20:11:52.866+08:00,842,1.684000,0,1003,4,1001,2,3.000000,4.000000,1.000000,2.000000
105635,2026-07-29T20:11:52.867+08:00,843,1.686000,0,1000,4,1000,2,0.000000,4.000000,0.000000,2.000000
105636,2026-07-29T20:11:52.867+08:00,844,1.688000,0,998,4,1000,2,-2.000000,4.000000,0.000000,2.000000
105637,2026-07-29T20:11:52.867+08:00,845,1.690000,0,998,4,1001,2,-2.000000,4.000000,1.000000,2.000000
105638,2026-07-29T20:11:52.869+08:00,846,1.692000,0,999,4,1001,2,-1.000000,4.000000,1.000000,2.000000
105639,2026-07-29T20:11:52.899+08:00,847,1.694000,0,999,4,998,2,-1.000000,4.000000,-2.000000,2.000000
105640,2026-07-29T20:11:52.899+08:00,848,1.696000,0,1000,4,996,2,0.000000,4.000000,-4.000000,2.000000
105641,2026-07-29T20:11:52.899+08:00,849,1.698000,0,1001,4,999,2,1.000000,4.000000,-1.000000,2.000000
105642,2026-07-29T20:11:52.899+08:00,850,1.700000,0,1001,4,1003,2,1.000000,4.000000,3.000000,2.000000
105643,2026-07-29T20:11:52.899+08:00,851,1.702000,0,999,4,1003,2,-1.000000,4.000000,3.000000,2.000000
105644,2026-07-29T20:11:52.899+08:00,852,1.704000,0,998,4,999,2,-2.000000,4.000000,-1.000000,2.000000
105645,2026-07-29T20:11:52.899+08:00,853,1.706000,0,999,4,997,2,-1.000000,4.000000,-3.000000,2.000000
105646,2026-07-29T20:11:52.899+08:00,854,1.708000,0,1001,4,998,2,1.000000,4.000000,-2.000000,2.000000
105647,2026-07-29T20:11:52.899+08:00,855,1.710000,0,1000,4,1000,2,0.000000,4.000000,0.000000,2.000000
105648,2026-07-29T20:11:52.899+08:00,856,1.712000,0,998,4,1001,2,-2.000000,4.000000,1.000000,2.000000
105649,2026-07-29T20:11:52.899+08:00,857,1.714000,0,998,4,999,2,-2.000000,4.000000,-1.000000,2.000000
105650,2026-07-29T20:11:52.899+08:00,858,1.716000,0,1000,4,998,2,0.000000,4.000000,-2.000000,2.000000
105651,2026-07-29T20:11:52.899+08:00,859,1.718000,0,1002,2,999,2,2.000000,2.000000,-1.000000,2.000000
105652,2026-07-29T20:11:52.899+08:00,860,1.720000,0,1001,2,1002,2,1.000000,2.000000,2.000000,2.000000
105653,2026-07-29T20:11:52.899+08:00,861,1.722000,0,997,2,1002,2,-3.000000,2.000000,2.000000,2.000000
105654,2026-07-29T20:11:52.914+08:00,862,1.724000,0,995,2,998,2,-5.000000,2.000000,-2.000000,2.000000
105655,2026-07-29T20:11:52.914+08:00,863,1.726000,0,998,2,995,2,-2.000000,2.000000,-5.000000,2.000000
105656,2026-07-29T20:11:52.914+08:00,864,1.728000,0,1003,2,997,2,3.000000,2.000000,-3.000000,2.000000
105657,2026-07-29T20:11:52.914+08:00,865,1.730000,0,1004,2,1003,2,4.000000,2.000000,3.000000,2.000000
105658,2026-07-29T20:11:52.914+08:00,866,1.732000,0,999,2,1004,2,-1.000000,2.000000,4.000000,2.000000
105659,2026-07-29T20:11:52.914+08:00,867,1.734000,0,995,2,1000,2,-5.000000,2.000000,0.000000,2.000000
105660,2026-07-29T20:11:52.914+08:00,868,1.736000,0,997,2,996,2,-3.000000,2.000000,-4.000000,2.000000
105661,2026-07-29T20:11:52.937+08:00,869,1.738000,0,1002,2,997,2,2.000000,2.000000,-3.000000,2.000000
105662,2026-07-29T20:11:52.937+08:00,870,1.740000,0,1002,2,999,2,2.000000,2.000000,-1.000000,2.000000
105663,2026-07-29T20:11:52.937+08:00,871,1.742000,0,998,2,1001,2,-2.000000,2.000000,1.000000,2.000000
105664,2026-07-29T20:11:52.937+08:00,872,1.744000,0,996,2,1000,2,-4.000000,2.000000,0.000000,2.000000
105665,2026-07-29T20:11:52.937+08:00,873,1.746000,0,1000,2,1000,2,0.000000,2.000000,0.000000,2.000000
105666,2026-07-29T20:11:52.937+08:00,874,1.748000,0,1005,2,1000,2,5.000000,2.000000,0.000000,2.000000
105667,2026-07-29T20:11:52.937+08:00,875,1.750000,0,1002,2,999,2,2.000000,2.000000,-1.000000,2.000000
105668,2026-07-29T20:11:52.937+08:00,876,1.752000,0,995,2,998,2,-5.000000,2.000000,-2.000000,2.000000
105669,2026-07-29T20:11:52.940+08:00,877,1.754000,0,994,2,998,2,-6.000000,2.000000,-2.000000,2.000000
105670,2026-07-29T20:11:52.940+08:00,878,1.756000,0,999,2,1000,2,-1.000000,2.000000,0.000000,2.000000
105671,2026-07-29T20:11:52.940+08:00,879,1.758000,0,1005,2,1001,2,5.000000,2.000000,1.000000,2.000000
105672,2026-07-29T20:11:52.942+08:00,880,1.760000,0,1004,2,1001,2,4.000000,2.000000,1.000000,2.000000
105673,2026-07-29T20:11:52.942+08:00,881,1.762000,0,999,2,999,2,-1.000000,2.000000,-1.000000,2.000000
105674,2026-07-29T20:11:52.942+08:00,882,1.764000,0,996,2,998,2,-4.000000,2.000000,-2.000000,2.000000
105675,2026-07-29T20:11:52.945+08:00,883,1.766000,0,997,2,999,2,-3.000000,2.000000,-1.000000,2.000000
105676,2026-07-29T20:11:52.945+08:00,884,1.768000,0,999,2,999,2,-1.000000,2.000000,-1.000000,2.000000
105677,2026-07-29T20:11:52.956+08:00,885,1.770000,0,1000,2,1000,2,0.000000,2.000000,0.000000,2.000000
105678,2026-07-29T20:11:52.956+08:00,886,1.772000,0,1001,2,1000,2,1.000000,2.000000,0.000000,2.000000
105679,2026-07-29T20:11:52.956+08:00,887,1.774000,0,1002,2,1000,2,2.000000,2.000000,0.000000,2.000000
105680,2026-07-29T20:11:52.964+08:00,888,1.776000,0,1001,2,999,2,1.000000,2.000000,-1.000000,2.000000
105681,2026-07-29T20:11:52.964+08:00,889,1.778000,0,998,2,998,2,-2.000000,2.000000,-2.000000,2.000000
105682,2026-07-29T20:11:52.964+08:00,890,1.780000,0,995,2,1000,2,-5.000000,2.000000,0.000000,2.000000
105683,2026-07-29T20:11:52.964+08:00,891,1.782000,0,997,2,1001,2,-3.000000,2.000000,1.000000,2.000000
105684,2026-07-29T20:11:52.975+08:00,892,1.784000,0,1002,2,1001,2,2.000000,2.000000,1.000000,2.000000
105685,2026-07-29T20:11:52.975+08:00,893,1.786000,0,1004,2,997,2,4.000000,2.000000,-3.000000,2.000000
105686,2026-07-29T20:11:52.975+08:00,894,1.788000,0,1002,2,996,2,2.000000,2.000000,-4.000000,2.000000
105687,2026-07-29T20:11:52.975+08:00,895,1.790000,0,998,2,1000,2,-2.000000,2.000000,0.000000,2.000000
105688,2026-07-29T20:11:52.975+08:00,896,1.792000,0,996,2,1005,2,-4.000000,2.000000,5.000000,2.000000
105689,2026-07-29T20:11:52.975+08:00,897,1.794000,0,996,2,1003,2,-4.000000,2.000000,3.000000,2.000000
105690,2026-07-29T20:11:53.022+08:00,898,1.796000,0,999,2,996,2,-1.000000,2.000000,-4.000000,2.000000
105691,2026-07-29T20:11:53.022+08:00,899,1.798000,0,1002,2,993,2,2.000000,2.000000,-7.000000,2.000000
105692,2026-07-29T20:11:53.022+08:00,900,1.800000,0,1004,2,998,2,4.000000,2.000000,-2.000000,2.000000
105693,2026-07-29T20:11:53.022+08:00,901,1.802000,0,1002,2,1005,2,2.000000,2.000000,5.000000,2.000000
105694,2026-07-29T20:11:53.022+08:00,902,1.804000,0,997,2,1005,2,-3.000000,2.000000,5.000000,2.000000
105695,2026-07-29T20:11:53.022+08:00,903,1.806000,0,994,2,1000,2,-6.000000,2.000000,0.000000,2.000000
105696,2026-07-29T20:11:53.022+08:00,904,1.808000,0,996,2,995,2,-4.000000,2.000000,-5.000000,2.000000
105697,2026-07-29T20:11:53.022+08:00,905,1.810000,0,1002,2,995,2,2.000000,2.000000,-5.000000,2.000000
105698,2026-07-29T20:11:53.022+08:00,906,1.812000,0,1006,2,1000,2,6.000000,2.000000,0.000000,2.000000
105699,2026-07-29T20:11:53.022+08:00,907,1.814000,0,1004,2,1003,2,4.000000,2.000000,3.000000,2.000000
105700,2026-07-29T20:11:53.022+08:00,908,1.816000,0,997,2,1002,2,-3.000000,2.000000,2.000000,2.000000
105701,2026-07-29T20:11:53.022+08:00,909,1.818000,0,993,2,999,2,-7.000000,2.000000,-1.000000,2.000000
105702,2026-07-29T20:11:53.022+08:00,910,1.820000,0,997,2,997,2,-3.000000,2.000000,-3.000000,2.000000
105703,2026-07-29T20:11:53.022+08:00,911,1.822000,0,1003,2,998,2,3.000000,2.000000,-2.000000,2.000000
105704,2026-07-29T20:11:53.022+08:00,912,1.824000,0,1003,2,1001,2,3.000000,2.000000,1.000000,2.000000
105705,2026-07-29T20:11:53.022+08:00,913,1.826000,0,998,2,1002,2,-2.000000,2.000000,2.000000,2.000000
105706,2026-07-29T20:11:53.022+08:00,914,1.828000,0,998,2,999,2,-2.000000,2.000000,-1.000000,2.000000
105707,2026-07-29T20:11:53.022+08:00,915,1.830000,0,1000,2,997,2,0.000000,2.000000,-3.000000,2.000000
105708,2026-07-29T20:11:53.022+08:00,916,1.832000,0,1001,2,998,2,1.000000,2.000000,-2.000000,2.000000
105709,2026-07-29T20:11:53.022+08:00,917,1.834000,0,998,2,1000,2,-2.000000,2.000000,0.000000,2.000000
105710,2026-07-29T20:11:53.022+08:00,918,1.836000,0,998,2,1001,2,-2.000000,2.000000,1.000000,2.000000
105711,2026-07-29T20:11:53.022+08:00,919,1.838000,0,1001,2,1000,2,1.000000,2.000000,0.000000,2.000000
105712,2026-07-29T20:11:53.022+08:00,920,1.840000,0,1001,2,999,2,1.000000,2.000000,-1.000000,2.000000
105713,2026-07-29T20:11:53.022+08:00,921,1.842000,0,999,2,998,2,-1.000000,2.000000,-2.000000,2.000000
105714,2026-07-29T20:11:53.030+08:00,922,1.844000,0,997,2,999,2,-3.000000,2.000000,-1.000000,2.000000
105715,2026-07-29T20:11:53.030+08:00,923,1.846000,0,999,2,1000,2,-1.000000,2.000000,0.000000,2.000000
105716,2026-07-29T20:11:53.030+08:00,924,1.848000,0,1002,2,1001,2,2.000000,2.000000,1.000000,2.000000
105717,2026-07-29T20:11:53.033+08:00,925,1.850000,0,1002,2,999,2,2.000000,2.000000,-1.000000,2.000000
105718,2026-07-29T20:11:53.033+08:00,926,1.852000,0,999,2,999,2,-1.000000,2.000000,-1.000000,2.000000
105719,2026-07-29T20:11:53.033+08:00,927,1.854000,0,996,2,1000,2,-4.000000,2.000000,0.000000,2.000000
105720,2026-07-29T20:11:53.035+08:00,928,1.856000,0,997,2,1001,2,-3.000000,2.000000,1.000000,2.000000
105721,2026-07-29T20:11:53.035+08:00,929,1.858000,0,1001,2,1000,2,1.000000,2.000000,0.000000,2.000000
105722,2026-07-29T20:11:53.051+08:00,930,1.860000,0,1002,2,997,2,2.000000,2.000000,-3.000000,2.000000
105723,2026-07-29T20:11:53.051+08:00,931,1.862000,0,1000,2,997,2,0.000000,2.000000,-3.000000,2.000000
105724,2026-07-29T20:11:53.051+08:00,932,1.864000,0,999,2,1000,2,-1.000000,2.000000,0.000000,2.000000
105725,2026-07-29T20:11:53.058+08:00,933,1.866000,0,1000,2,1003,2,0.000000,2.000000,3.000000,2.000000
105726,2026-07-29T20:11:53.058+08:00,934,1.868000,0,999,2,1002,2,-1.000000,2.000000,2.000000,2.000000
105727,2026-07-29T20:11:53.058+08:00,935,1.870000,0,997,2,998,2,-3.000000,2.000000,-2.000000,2.000000
105728,2026-07-29T20:11:53.058+08:00,936,1.872000,0,996,2,995,2,-4.000000,2.000000,-5.000000,2.000000
105729,2026-07-29T20:11:53.062+08:00,937,1.874000,0,1000,2,996,2,0.000000,2.000000,-4.000000,2.000000
105730,2026-07-29T20:11:53.062+08:00,938,1.876000,0,1005,2,1000,2,5.000000,2.000000,0.000000,2.000000
105731,2026-07-29T20:11:53.062+08:00,939,1.878000,0,1005,2,1003,2,5.000000,2.000000,3.000000,2.000000
105732,2026-07-29T20:11:53.081+08:00,940,1.880000,0,999,2,1002,2,-1.000000,2.000000,2.000000,2.000000
105733,2026-07-29T20:11:53.081+08:00,941,1.882000,0,992,2,999,2,-8.000000,2.000000,-1.000000,2.000000
105734,2026-07-29T20:11:53.081+08:00,942,1.884000,0,993,2,997,2,-7.000000,2.000000,-3.000000,2.000000
105735,2026-07-29T20:11:53.106+08:00,943,1.886000,0,1000,2,997,2,0.000000,2.000000,-3.000000,2.000000
105736,2026-07-29T20:11:53.106+08:00,944,1.888000,0,1006,2,998,2,6.000000,2.000000,-2.000000,2.000000
105737,2026-07-29T20:11:53.106+08:00,945,1.890000,0,1005,2,1000,2,5.000000,2.000000,0.000000,2.000000
105738,2026-07-29T20:11:53.106+08:00,946,1.892000,0,1000,2,1001,2,0.000000,2.000000,1.000000,2.000000
105739,2026-07-29T20:11:53.106+08:00,947,1.894000,0,995,2,1002,2,-5.000000,2.000000,2.000000,2.000000
105740,2026-07-29T20:11:53.106+08:00,948,1.896000,0,994,2,1001,2,-6.000000,2.000000,1.000000,2.000000
105741,2026-07-29T20:11:53.106+08:00,949,1.898000,0,997,2,998,2,-3.000000,2.000000,-2.000000,2.000000
105742,2026-07-29T20:11:53.106+08:00,950,1.900000,0,1001,2,996,2,1.000000,2.000000,-4.000000,2.000000
105743,2026-07-29T20:11:53.106+08:00,951,1.902000,0,1003,2,998,2,3.000000,2.000000,-2.000000,2.000000
105744,2026-07-29T20:11:53.106+08:00,952,1.904000,0,1004,4,1002,2,4.000000,4.000000,2.000000,2.000000
105745,2026-07-29T20:11:53.106+08:00,953,1.906000,0,1001,4,1003,2,1.000000,4.000000,3.000000,2.000000
105746,2026-07-29T20:11:53.106+08:00,954,1.908000,0,997,4,1001,2,-3.000000,4.000000,1.000000,2.000000
105747,2026-07-29T20:11:53.106+08:00,955,1.910000,0,994,4,998,2,-6.000000,4.000000,-2.000000,2.000000
105748,2026-07-29T20:11:53.106+08:00,956,1.912000,0,995,4,998,2,-5.000000,4.000000,-2.000000,2.000000
105749,2026-07-29T20:11:53.106+08:00,957,1.914000,0,1000,4,999,2,0.000000,4.000000,-1.000000,2.000000
105750,2026-07-29T20:11:53.106+08:00,958,1.916000,0,1005,4,1000,2,5.000000,4.000000,0.000000,2.000000
105751,2026-07-29T20:11:53.106+08:00,959,1.918000,0,1004,4,999,2,4.000000,4.000000,-1.000000,2.000000
105752,2026-07-29T20:11:53.106+08:00,960,1.920000,0,999,4,999,2,-1.000000,4.000000,-1.000000,2.000000
105753,2026-07-29T20:11:53.106+08:00,961,1.922000,0,995,4,1002,2,-5.000000,4.000000,2.000000,2.000000
105754,2026-07-29T20:11:53.106+08:00,962,1.924000,0,996,4,1003,2,-4.000000,4.000000,3.000000,2.000000
105755,2026-07-29T20:11:53.108+08:00,963,1.926000,0,999,4,1000,2,-1.000000,4.000000,0.000000,2.000000
105756,2026-07-29T20:11:53.108+08:00,964,1.928000,0,1001,4,995,2,1.000000,4.000000,-5.000000,2.000000
105757,2026-07-29T20:11:53.108+08:00,965,1.930000,0,1001,4,994,2,1.000000,4.000000,-6.000000,2.000000
105758,2026-07-29T20:11:53.109+08:00,966,1.932000,0,1002,4,999,2,2.000000,4.000000,-1.000000,2.000000
105759,2026-07-29T20:11:53.123+08:00,967,1.934000,0,1001,4,1005,2,1.000000,4.000000,5.000000,2.000000
105760,2026-07-29T20:11:53.123+08:00,968,1.936000,0,999,4,1005,2,-1.000000,4.000000,5.000000,2.000000
105761,2026-07-29T20:11:53.123+08:00,969,1.938000,0,997,4,1000,2,-3.000000,4.000000,0.000000,2.000000
105762,2026-07-29T20:11:53.134+08:00,970,1.940000,0,996,4,994,2,-4.000000,4.000000,-6.000000,2.000000
105763,2026-07-29T20:11:53.134+08:00,971,1.942000,0,998,4,994,2,-2.000000,4.000000,-6.000000,2.000000
105764,2026-07-29T20:11:53.134+08:00,972,1.944000,0,1000,4,999,2,0.000000,4.000000,-1.000000,2.000000
105765,2026-07-29T20:11:53.134+08:00,973,1.946000,0,1003,4,1003,2,3.000000,4.000000,3.000000,2.000000
105766,2026-07-29T20:11:53.134+08:00,974,1.948000,0,1004,4,1003,2,4.000000,4.000000,3.000000,2.000000
105767,2026-07-29T20:11:53.134+08:00,975,1.950000,0,1001,4,1001,2,1.000000,4.000000,1.000000,2.000000
105768,2026-07-29T20:11:53.140+08:00,976,1.952000,0,996,4,998,2,-4.000000,4.000000,-2.000000,2.000000
105769,2026-07-29T20:11:53.140+08:00,977,1.954000,0,992,4,998,2,-8.000000,4.000000,-2.000000,2.000000
105770,2026-07-29T20:11:53.140+08:00,978,1.956000,0,995,4,998,2,-5.000000,4.000000,-2.000000,2.000000
105771,2026-07-29T20:11:53.140+08:00,979,1.958000,0,1003,4,1000,2,3.000000,4.000000,0.000000,2.000000
105772,2026-07-29T20:11:53.140+08:00,980,1.960000,0,1008,4,1000,2,8.000000,4.000000,0.000000,2.000000
105773,2026-07-29T20:11:53.140+08:00,981,1.962000,0,1005,4,999,2,5.000000,4.000000,-1.000000,2.000000
105774,2026-07-29T20:11:53.163+08:00,982,1.964000,0,997,4,999,2,-3.000000,4.000000,-1.000000,2.000000
105775,2026-07-29T20:11:53.163+08:00,983,1.966000,0,992,4,1001,2,-8.000000,4.000000,1.000000,2.000000
105776,2026-07-29T20:11:53.163+08:00,984,1.968000,0,995,4,1002,2,-5.000000,4.000000,2.000000,2.000000
105777,2026-07-29T20:11:53.163+08:00,985,1.970000,0,1002,4,1000,2,2.000000,4.000000,0.000000,2.000000
105778,2026-07-29T20:11:53.163+08:00,986,1.972000,0,1005,4,996,2,5.000000,4.000000,-4.000000,2.000000
105779,2026-07-29T20:11:53.163+08:00,987,1.974000,0,1001,4,996,2,1.000000,4.000000,-4.000000,2.000000
105780,2026-07-29T20:11:53.163+08:00,988,1.976000,0,998,4,999,2,-2.000000,4.000000,-1.000000,2.000000
105781,2026-07-29T20:11:53.163+08:00,989,1.978000,0,999,4,1004,2,-1.000000,4.000000,4.000000,2.000000
105782,2026-07-29T20:11:53.184+08:00,990,1.980000,0,1001,4,1004,2,1.000000,4.000000,4.000000,2.000000
105783,2026-07-29T20:11:53.184+08:00,991,1.982000,0,999,4,999,2,-1.000000,4.000000,-1.000000,2.000000
105784,2026-07-29T20:11:53.184+08:00,992,1.984000,0,996,4,995,2,-4.000000,4.000000,-5.000000,2.000000
105785,2026-07-29T20:11:53.184+08:00,993,1.986000,0,998,4,997,2,-2.000000,4.000000,-3.000000,2.000000
105786,2026-07-29T20:11:53.184+08:00,994,1.988000,0,1003,4,1001,2,3.000000,4.000000,1.000000,2.000000
105787,2026-07-29T20:11:53.184+08:00,995,1.990000,0,1005,4,1003,2,5.000000,4.000000,3.000000,2.000000
105788,2026-07-29T20:11:53.184+08:00,996,1.992000,0,1000,4,1000,2,0.000000,4.000000,0.000000,2.000000
105789,2026-07-29T20:11:53.184+08:00,997,1.994000,0,996,4,997,2,-4.000000,4.000000,-3.000000,2.000000
105790,2026-07-29T20:11:53.184+08:00,998,1.996000,0,997,4,999,2,-3.000000,4.000000,-1.000000,2.000000
105791,2026-07-29T20:11:53.184+08:00,999,1.998000,0,998,4,1002,2,-2.000000,4.000000,2.000000,2.000000
105792,2026-07-29T20:11:53.184+08:00,1000,2.000000,0,998,4,1001,2,-2.000000,4.000000,1.000000,2.000000
105793,2026-07-29T20:11:53.184+08:00,1001,2.002000,0,1000,4,997,2,0.000000,4.000000,-3.000000,2.000000
105794,2026-07-29T20:11:53.184+08:00,1002,2.004000,0,1005,4,997,2,5.000000,4.000000,-3.000000,2.000000
105795,2026-07-29T20:11:53.186+08:00,1003,2.006000,0,1005,4,1000,2,5.000000,4.000000,0.000000,2.000000
105796,2026-07-29T20:11:53.186+08:00,1004,2.008000,0,997,4,1003,2,-3.000000,4.000000,3.000000,2.000000
105797,2026-07-29T20:11:53.196+08:00,1005,2.010000,0,990,4,1001,2,-10.000000,4.000000,1.000000,2.000000
105798,2026-07-29T20:11:53.196+08:00,1006,2.012000,0,994,4,998,2,-6.000000,4.000000,-2.000000,2.000000
105799,2026-07-29T20:11:53.196+08:00,1007,2.014000,0,1004,4,998,2,4.000000,4.000000,-2.000000,2.000000
105800,2026-07-29T20:11:53.199+08:00,1008,2.016000,0,1008,4,1000,2,8.000000,4.000000,0.000000,2.000000
105801,2026-07-29T20:11:53.199+08:00,1009,2.018000,0,1003,4,1000,2,3.000000,4.000000,0.000000,2.000000
105802,2026-07-29T20:11:53.199+08:00,1010,2.020000,0,995,4,998,2,-5.000000,4.000000,-2.000000,2.000000
105803,2026-07-29T20:11:53.206+08:00,1011,2.022000,0,995,4,998,2,-5.000000,4.000000,-2.000000,2.000000
105804,2026-07-29T20:11:53.217+08:00,1012,2.024000,0,999,4,1001,2,-1.000000,4.000000,1.000000,2.000000
105805,2026-07-29T20:11:53.217+08:00,1013,2.026000,0,1000,4,1003,2,0.000000,4.000000,3.000000,2.000000
105806,2026-07-29T20:11:53.217+08:00,1014,2.028000,0,999,4,1001,2,-1.000000,4.000000,1.000000,2.000000
105807,2026-07-29T20:11:53.217+08:00,1015,2.030000,0,1000,4,997,2,0.000000,4.000000,-3.000000,2.000000
105808,2026-07-29T20:11:53.217+08:00,1016,2.032000,0,1004,4,995,2,4.000000,4.000000,-5.000000,2.000000
105809,2026-07-29T20:11:53.217+08:00,1017,2.034000,0,1004,4,998,2,4.000000,4.000000,-2.000000,2.000000
105810,2026-07-29T20:11:53.217+08:00,1018,2.036000,0,996,4,1003,2,-4.000000,4.000000,3.000000,2.000000
105811,2026-07-29T20:11:53.217+08:00,1019,2.038000,0,990,4,1004,2,-10.000000,4.000000,4.000000,2.000000
105812,2026-07-29T20:11:53.242+08:00,1020,2.040000,0,995,4,1001,2,-5.000000,4.000000,1.000000,2.000000
105813,2026-07-29T20:11:53.242+08:00,1021,2.042000,0,1005,4,997,2,5.000000,4.000000,-3.000000,2.000000
105814,2026-07-29T20:11:53.242+08:00,1022,2.044000,0,1008,4,996,2,8.000000,4.000000,-4.000000,2.000000
105815,2026-07-29T20:11:53.242+08:00,1023,2.046000,0,1001,4,998,2,1.000000,4.000000,-2.000000,2.000000
105816,2026-07-29T20:11:53.242+08:00,1024,2.048000,0,994,4,1001,2,-6.000000,4.000000,1.000000,2.000000
105817,2026-07-29T20:11:53.242+08:00,1025,2.050000,0,994,4,1002,2,-6.000000,4.000000,2.000000,2.000000
105818,2026-07-29T20:11:53.242+08:00,1026,2.052000,0,1000,4,1000,2,0.000000,4.000000,0.000000,2.000000
105819,2026-07-29T20:11:53.242+08:00,1027,2.054000,0,1002,4,998,2,2.000000,4.000000,-2.000000,2.000000
105820,2026-07-29T20:11:53.242+08:00,1028,2.056000,0,1001,4,998,2,1.000000,4.000000,-2.000000,2.000000
105821,2026-07-29T20:11:53.242+08:00,1029,2.058000,0,999,4,1001,2,-1.000000,4.000000,1.000000,2.000000
105822,2026-07-29T20:11:53.267+08:00,1030,2.060000,0,1000,4,1001,2,0.000000,4.000000,1.000000,2.000000
105823,2026-07-29T20:11:53.267+08:00,1031,2.062000,0,1001,4,998,2,1.000000,4.000000,-2.000000,2.000000
105824,2026-07-29T20:11:53.267+08:00,1032,2.064000,0,999,4,996,2,-1.000000,4.000000,-4.000000,2.000000
105825,2026-07-29T20:11:53.267+08:00,1033,2.066000,0,997,4,999,2,-3.000000,4.000000,-1.000000,2.000000
105826,2026-07-29T20:11:53.267+08:00,1034,2.068000,0,999,4,1003,2,-1.000000,4.000000,3.000000,2.000000
105827,2026-07-29T20:11:53.267+08:00,1035,2.070000,0,1002,4,1003,2,2.000000,4.000000,3.000000,2.000000
105828,2026-07-29T20:11:53.267+08:00,1036,2.072000,0,1002,4,999,2,2.000000,4.000000,-1.000000,2.000000
105829,2026-07-29T20:11:53.267+08:00,1037,2.074000,0,998,4,997,2,-2.000000,4.000000,-3.000000,2.000000
105830,2026-07-29T20:11:53.267+08:00,1038,2.076000,0,996,4,997,2,-4.000000,4.000000,-3.000000,2.000000
105831,2026-07-29T20:11:53.267+08:00,1039,2.078000,0,999,4,1000,2,-1.000000,4.000000,0.000000,2.000000
105832,2026-07-29T20:11:53.267+08:00,1040,2.080000,0,1003,4,1001,2,3.000000,4.000000,1.000000,2.000000
105833,2026-07-29T20:11:53.267+08:00,1041,2.082000,0,1002,4,1001,2,2.000000,4.000000,1.000000,2.000000
105834,2026-07-29T20:11:53.271+08:00,1042,2.084000,0,996,4,1000,2,-4.000000,4.000000,0.000000,2.000000
105835,2026-07-29T20:11:53.271+08:00,1043,2.086000,0,995,4,999,2,-5.000000,4.000000,-1.000000,2.000000
105836,2026-07-29T20:11:53.271+08:00,1044,2.088000,0,1000,4,999,2,0.000000,4.000000,-1.000000,2.000000
105837,2026-07-29T20:11:53.273+08:00,1045,2.090000,0,1004,4,1000,2,4.000000,4.000000,0.000000,2.000000
105838,2026-07-29T20:11:53.273+08:00,1046,2.092000,0,1001,4,999,2,1.000000,4.000000,-1.000000,2.000000
105839,2026-07-29T20:11:53.273+08:00,1047,2.094000,0,996,4,998,2,-4.000000,4.000000,-2.000000,2.000000
105840,2026-07-29T20:11:53.276+08:00,1048,2.096000,0,998,4,999,2,-2.000000,4.000000,-1.000000,2.000000
105841,2026-07-29T20:11:53.276+08:00,1049,2.098000,0,1002,4,1003,2,2.000000,4.000000,3.000000,2.000000
105842,2026-07-29T20:11:53.295+08:00,1050,2.100000,0,1002,4,1003,2,2.000000,4.000000,3.000000,2.000000
105843,2026-07-29T20:11:53.295+08:00,1051,2.102000,0,997,4,998,2,-3.000000,4.000000,-2.000000,2.000000
105844,2026-07-29T20:11:53.295+08:00,1052,2.104000,0,995,4,993,2,-5.000000,4.000000,-7.000000,2.000000
105845,2026-07-29T20:11:53.295+08:00,1053,2.106000,0,1000,4,996,2,0.000000,4.000000,-4.000000,2.000000
105846,2026-07-29T20:11:53.295+08:00,1054,2.108000,0,1005,4,1004,2,5.000000,4.000000,4.000000,2.000000
105847,2026-07-29T20:11:53.295+08:00,1055,2.110000,0,1004,4,1007,2,4.000000,4.000000,7.000000,2.000000
105848,2026-07-29T20:11:53.295+08:00,1056,2.112000,0,998,4,1001,2,-2.000000,4.000000,1.000000,2.000000
105849,2026-07-29T20:11:53.301+08:00,1057,2.114000,0,993,4,994,2,-7.000000,4.000000,-6.000000,2.000000
105850,2026-07-29T20:11:53.301+08:00,1058,2.116000,0,995,4,994,2,-5.000000,4.000000,-6.000000,2.000000
105851,2026-07-29T20:11:53.301+08:00,1059,2.118000,0,1001,4,1000,2,1.000000,4.000000,0.000000,2.000000
105852,2026-07-29T20:11:53.324+08:00,1060,2.120000,0,1006,4,1003,2,6.000000,4.000000,3.000000,2.000000
105853,2026-07-29T20:11:53.324+08:00,1061,2.122000,0,1004,4,1001,2,4.000000,4.000000,1.000000,2.000000
105854,2026-07-29T20:11:53.324+08:00,1062,2.124000,0,999,4,999,2,-1.000000,4.000000,-1.000000,2.000000
105855,2026-07-29T20:11:53.324+08:00,1063,2.126000,0,995,4,999,2,-5.000000,4.000000,-1.000000,2.000000
105856,2026-07-29T20:11:53.324+08:00,1064,2.128000,0,995,4,1000,2,-5.000000,4.000000,0.000000,2.000000
105857,2026-07-29T20:11:53.325+08:00,1065,2.130000,0,998,4,999,2,-2.000000,4.000000,-1.000000,2.000000
105858,2026-07-29T20:11:53.325+08:00,1066,2.132000,0,1002,4,997,2,2.000000,4.000000,-3.000000,2.000000
105859,2026-07-29T20:11:53.325+08:00,1067,2.134000,0,1004,4,999,2,4.000000,4.000000,-1.000000,2.000000
105860,2026-07-29T20:11:53.325+08:00,1068,2.136000,0,1004,4,1002,2,4.000000,4.000000,2.000000,2.000000
105861,2026-07-29T20:11:53.325+08:00,1069,2.138000,0,1000,4,1002,2,0.000000,4.000000,2.000000,2.000000
105862,2026-07-29T20:11:53.325+08:00,1070,2.140000,0,994,4,999,2,-6.000000,4.000000,-1.000000,2.000000
105863,2026-07-29T20:11:53.325+08:00,1071,2.142000,0,993,4,997,2,-7.000000,4.000000,-3.000000,2.000000
105864,2026-07-29T20:11:53.348+08:00,1072,2.144000,0,999,4,999,2,-1.000000,4.000000,-1.000000,2.000000
105865,2026-07-29T20:11:53.348+08:00,1073,2.146000,0,1005,4,1001,2,5.000000,4.000000,1.000000,2.000000
105866,2026-07-29T20:11:53.348+08:00,1074,2.148000,0,1006,4,1000,2,6.000000,4.000000,0.000000,2.000000
105867,2026-07-29T20:11:53.348+08:00,1075,2.150000,0,1000,4,998,2,0.000000,4.000000,-2.000000,2.000000
105868,2026-07-29T20:11:53.348+08:00,1076,2.152000,0,994,4,999,2,-6.000000,4.000000,-1.000000,2.000000
105869,2026-07-29T20:11:53.348+08:00,1077,2.154000,0,995,4,1001,2,-5.000000,4.000000,1.000000,2.000000
105870,2026-07-29T20:11:53.348+08:00,1078,2.156000,0,1001,4,1001,2,1.000000,4.000000,1.000000,2.000000
105871,2026-07-29T20:11:53.348+08:00,1079,2.158000,0,1004,4,999,2,4.000000,4.000000,-1.000000,2.000000
105872,2026-07-29T20:11:53.348+08:00,1080,2.160000,0,1001,4,997,2,1.000000,4.000000,-3.000000,2.000000
105873,2026-07-29T20:11:53.348+08:00,1081,2.162000,0,997,4,998,2,-3.000000,4.000000,-2.000000,2.000000
105874,2026-07-29T20:11:53.348+08:00,1082,2.164000,0,997,4,1001,2,-3.000000,4.000000,1.000000,2.000000
105875,2026-07-29T20:11:53.348+08:00,1083,2.166000,0,999,4,1003,2,-1.000000,4.000000,3.000000,2.000000
105876,2026-07-29T20:11:53.348+08:00,1084,2.168000,0,1001,4,1000,2,1.000000,4.000000,0.000000,2.000000
105877,2026-07-29T20:11:53.348+08:00,1085,2.170000,0,1002,4,996,2,2.000000,4.000000,-4.000000,2.000000
105878,2026-07-29T20:11:53.350+08:00,1086,2.172000,0,1002,4,996,2,2.000000,4.000000,-4.000000,2.000000
105879,2026-07-29T20:11:53.361+08:00,1087,2.174000,0,999,4,1001,2,-1.000000,4.000000,1.000000,2.000000
105880,2026-07-29T20:11:53.361+08:00,1088,2.176000,0,994,4,1005,2,-6.000000,4.000000,5.000000,2.000000
105881,2026-07-29T20:11:53.361+08:00,1089,2.178000,0,994,4,1002,2,-6.000000,4.000000,2.000000,2.000000
105882,2026-07-29T20:11:53.364+08:00,1090,2.180000,0,1001,4,996,2,1.000000,4.000000,-4.000000,2.000000
105883,2026-07-29T20:11:53.364+08:00,1091,2.182000,0,1009,4,994,2,9.000000,4.000000,-6.000000,2.000000
105884,2026-07-29T20:11:53.364+08:00,1092,2.184000,0,1007,4,998,2,7.000000,4.000000,-2.000000,2.000000
105885,2026-07-29T20:11:53.367+08:00,1093,2.186000,0,995,4,1003,2,-5.000000,4.000000,3.000000,2.000000
105886,2026-07-29T20:11:53.367+08:00,1094,2.188000,0,988,4,1005,2,-12.000000,4.000000,5.000000,2.000000
105887,2026-07-29T20:11:53.374+08:00,1095,2.190000,0,994,4,1002,2,-6.000000,4.000000,2.000000,2.000000
105888,2026-07-29T20:11:53.378+08:00,1096,2.192000,0,1007,4,996,2,7.000000,4.000000,-4.000000,2.000000
105889,2026-07-29T20:11:53.378+08:00,1097,2.194000,0,1010,6,993,2,10.000000,6.000000,-7.000000,2.000000
105890,2026-07-29T20:11:53.378+08:00,1098,2.196000,0,1001,6,996,2,1.000000,6.000000,-4.000000,2.000000
105891,2026-07-29T20:11:53.384+08:00,1099,2.198000,0,991,6,1003,2,-9.000000,6.000000,3.000000,2.000000
105892,2026-07-29T20:11:53.384+08:00,1100,2.200000,0,993,6,1006,2,-7.000000,6.000000,6.000000,2.000000
105893,2026-07-29T20:11:53.384+08:00,1101,2.202000,0,1002,6,1002,2,2.000000,6.000000,2.000000,2.000000
105894,2026-07-29T20:11:53.429+08:00,1102,2.204000,0,1006,6,995,2,6.000000,6.000000,-5.000000,2.000000
105895,2026-07-29T20:11:53.429+08:00,1103,2.206000,0,1000,6,993,2,0.000000,6.000000,-7.000000,2.000000
105896,2026-07-29T20:11:53.429+08:00,1104,2.208000,0,995,6,999,2,-5.000000,6.000000,-1.000000,2.000000
105897,2026-07-29T20:11:53.429+08:00,1105,2.210000,0,998,6,1004,2,-2.000000,6.000000,4.000000,2.000000
105898,2026-07-29T20:11:53.429+08:00,1106,2.212000,0,1003,6,1003,2,3.000000,6.000000,3.000000,2.000000
105899,2026-07-29T20:11:53.429+08:00,1107,2.214000,0,1002,6,999,2,2.000000,6.000000,-1.000000,2.000000
105900,2026-07-29T20:11:53.429+08:00,1108,2.216000,0,997,6,996,2,-3.000000,6.000000,-4.000000,2.000000
105901,2026-07-29T20:11:53.429+08:00,1109,2.218000,0,995,4,998,2,-5.000000,4.000000,-2.000000,2.000000
105902,2026-07-29T20:11:53.429+08:00,1110,2.220000,0,1000,4,1001,2,0.000000,4.000000,1.000000,2.000000
105903,2026-07-29T20:11:53.429+08:00,1111,2.222000,0,1004,4,1001,2,4.000000,4.000000,1.000000,2.000000
105904,2026-07-29T20:11:53.429+08:00,1112,2.224000,0,1001,4,999,2,1.000000,4.000000,-1.000000,2.000000
105905,2026-07-29T20:11:53.429+08:00,1113,2.226000,0,997,4,997,2,-3.000000,4.000000,-3.000000,2.000000
105906,2026-07-29T20:11:53.429+08:00,1114,2.228000,0,996,4,998,2,-4.000000,4.000000,-2.000000,2.000000
105907,2026-07-29T20:11:53.429+08:00,1115,2.230000,0,1000,4,1002,2,0.000000,4.000000,2.000000,2.000000
105908,2026-07-29T20:11:53.429+08:00,1116,2.232000,0,1003,4,1003,2,3.000000,4.000000,3.000000,2.000000
105909,2026-07-29T20:11:53.429+08:00,1117,2.234000,0,1002,4,999,2,2.000000,4.000000,-1.000000,2.000000
105910,2026-07-29T20:11:53.429+08:00,1118,2.236000,0,998,4,995,2,-2.000000,4.000000,-5.000000,2.000000
105911,2026-07-29T20:11:53.429+08:00,1119,2.238000,0,996,4,995,2,-4.000000,4.000000,-5.000000,2.000000
105912,2026-07-29T20:11:53.429+08:00,1120,2.240000,0,998,4,1001,2,-2.000000,4.000000,1.000000,2.000000
105913,2026-07-29T20:11:53.429+08:00,1121,2.242000,0,1003,4,1005,2,3.000000,4.000000,5.000000,2.000000
105914,2026-07-29T20:11:53.429+08:00,1122,2.244000,0,1004,4,1003,2,4.000000,4.000000,3.000000,2.000000
105915,2026-07-29T20:11:53.429+08:00,1123,2.246000,0,1000,4,998,2,0.000000,4.000000,-2.000000,2.000000
105916,2026-07-29T20:11:53.429+08:00,1124,2.248000,0,995,4,995,2,-5.000000,4.000000,-5.000000,2.000000
105917,2026-07-29T20:11:53.433+08:00,1125,2.250000,0,996,4,998,2,-4.000000,4.000000,-2.000000,2.000000
105918,2026-07-29T20:11:53.436+08:00,1126,2.252000,0,1001,4,1002,2,1.000000,4.000000,2.000000,2.000000
105919,2026-07-29T20:11:53.436+08:00,1127,2.254000,0,1003,4,1001,2,3.000000,4.000000,1.000000,2.000000
105920,2026-07-29T20:11:53.436+08:00,1128,2.256000,0,1001,4,999,2,1.000000,4.000000,-1.000000,2.000000
105921,2026-07-29T20:11:53.439+08:00,1129,2.258000,0,998,4,998,2,-2.000000,4.000000,-2.000000,2.000000
105922,2026-07-29T20:11:53.439+08:00,1130,2.260000,0,998,4,1000,2,-2.000000,4.000000,0.000000,2.000000
105923,2026-07-29T20:11:53.439+08:00,1131,2.262000,0,999,4,1002,2,-1.000000,4.000000,2.000000,2.000000
105924,2026-07-29T20:11:53.455+08:00,1132,2.264000,0,998,4,1000,2,-2.000000,4.000000,0.000000,2.000000
105925,2026-07-29T20:11:53.455+08:00,1133,2.266000,0,999,4,997,2,-1.000000,4.000000,-3.000000,2.000000
105926,2026-07-29T20:11:53.455+08:00,1134,2.268000,0,1001,4,996,2,1.000000,4.000000,-4.000000,2.000000
105927,2026-07-29T20:11:53.461+08:00,1135,2.270000,0,1003,4,999,2,3.000000,4.000000,-1.000000,2.000000
105928,2026-07-29T20:11:53.461+08:00,1136,2.272000,0,1002,4,1003,2,2.000000,4.000000,3.000000,2.000000
105929,2026-07-29T20:11:53.461+08:00,1137,2.274000,0,998,4,1003,2,-2.000000,4.000000,3.000000,2.000000
105930,2026-07-29T20:11:53.461+08:00,1138,2.276000,0,996,4,1001,2,-4.000000,4.000000,1.000000,2.000000
105931,2026-07-29T20:11:53.461+08:00,1139,2.278000,0,997,4,997,2,-3.000000,4.000000,-3.000000,2.000000
105932,2026-07-29T20:11:53.483+08:00,1140,2.280000,0,999,4,996,2,-1.000000,4.000000,-4.000000,2.000000
105933,2026-07-29T20:11:53.483+08:00,1141,2.282000,0,1001,4,998,2,1.000000,4.000000,-2.000000,2.000000
105934,2026-07-29T20:11:53.483+08:00,1142,2.284000,0,1003,4,1001,2,3.000000,4.000000,1.000000,2.000000
105935,2026-07-29T20:11:53.483+08:00,1143,2.286000,0,1003,4,1002,2,3.000000,4.000000,2.000000,2.000000
105936,2026-07-29T20:11:53.483+08:00,1144,2.288000,0,1000,4,1000,2,0.000000,4.000000,0.000000,2.000000
105937,2026-07-29T20:11:53.483+08:00,1145,2.290000,0,996,4,999,2,-4.000000,4.000000,-1.000000,2.000000
105938,2026-07-29T20:11:53.483+08:00,1146,2.292000,0,994,4,1000,2,-6.000000,4.000000,0.000000,2.000000
105939,2026-07-29T20:11:53.483+08:00,1147,2.294000,0,997,4,1000,2,-3.000000,4.000000,0.000000,2.000000
105940,2026-07-29T20:11:53.483+08:00,1148,2.296000,0,1002,4,998,2,2.000000,4.000000,-2.000000,2.000000
105941,2026-07-29T20:11:53.483+08:00,1149,2.298000,0,1005,4,997,2,5.000000,4.000000,-3.000000,2.000000
105942,2026-07-29T20:11:53.483+08:00,1150,2.300000,0,1003,4,999,2,3.000000,4.000000,-1.000000,2.000000
105943,2026-07-29T20:11:53.483+08:00,1151,2.302000,0,998,4,1002,2,-2.000000,4.000000,2.000000,2.000000
105944,2026-07-29T20:11:53.483+08:00,1152,2.304000,0,994,4,1002,2,-6.000000,4.000000,2.000000,2.000000
105945,2026-07-29T20:11:53.504+08:00,1153,2.306000,0,996,4,999,2,-4.000000,4.000000,-1.000000,2.000000
105946,2026-07-29T20:11:53.504+08:00,1154,2.308000,0,1000,4,997,2,0.000000,4.000000,-3.000000,2.000000
105947,2026-07-29T20:11:53.504+08:00,1155,2.310000,0,1002,4,997,2,2.000000,4.000000,-3.000000,2.000000
105948,2026-07-29T20:11:53.504+08:00,1156,2.312000,0,1002,4,999,2,2.000000,4.000000,-1.000000,2.000000
105949,2026-07-29T20:11:53.504+08:00,1157,2.314000,0,1001,4,1001,2,1.000000,4.000000,1.000000,2.000000
105950,2026-07-29T20:11:53.504+08:00,1158,2.316000,0,1000,4,1002,2,0.000000,4.000000,2.000000,2.000000
105951,2026-07-29T20:11:53.504+08:00,1159,2.318000,0,998,4,1000,2,-2.000000,4.000000,0.000000,2.000000
105952,2026-07-29T20:11:53.504+08:00,1160,2.320000,0,996,4,998,2,-4.000000,4.000000,-2.000000,2.000000
105953,2026-07-29T20:11:53.504+08:00,1161,2.322000,0,998,4,998,2,-2.000000,4.000000,-2.000000,2.000000
105954,2026-07-29T20:11:53.510+08:00,1162,2.324000,0,1000,4,999,2,0.000000,4.000000,-1.000000,2.000000
105955,2026-07-29T20:11:53.510+08:00,1163,2.326000,0,1002,4,1000,2,2.000000,4.000000,0.000000,2.000000
105956,2026-07-29T20:11:53.510+08:00,1164,2.328000,0,1002,4,1001,2,2.000000,4.000000,1.000000,2.000000
105957,2026-07-29T20:11:53.512+08:00,1165,2.330000,0,1000,4,1001,2,0.000000,4.000000,1.000000,2.000000
105958,2026-07-29T20:11:53.512+08:00,1166,2.332000,0,998,4,1001,2,-2.000000,4.000000,1.000000,2.000000
105959,2026-07-29T20:11:53.512+08:00,1167,2.334000,0,998,4,999,2,-2.000000,4.000000,-1.000000,2.000000
105960,2026-07-29T20:11:53.515+08:00,1168,2.336000,0,997,4,996,2,-3.000000,4.000000,-4.000000,2.000000
105961,2026-07-29T20:11:53.515+08:00,1169,2.338000,0,998,4,997,2,-2.000000,4.000000,-3.000000,2.000000
105962,2026-07-29T20:11:53.529+08:00,1170,2.340000,0,1000,4,1002,2,0.000000,4.000000,2.000000,2.000000
105963,2026-07-29T20:11:53.529+08:00,1171,2.342000,0,1005,4,1004,2,5.000000,4.000000,4.000000,2.000000
105964,2026-07-29T20:11:53.529+08:00,1172,2.344000,0,1005,4,1001,2,5.000000,4.000000,1.000000,2.000000
