frame_index,host_receive_time,recording_sample_index,recording_elapsed_s,button_label,Channel1_raw,Channel2_raw,Channel 3_raw,Channel 4_raw,Channel1_display,Channel2_display,Channel 3_display,Channel 4_display
13179,2026-07-29T17:09:30.881+08:00,0,0.000000,0,992,8,1003,2,-8.000000,8.000000,3.000000,2.000000
13180,2026-07-29T17:09:30.881+08:00,1,0.002000,0,993,8,1000,2,-7.000000,8.000000,0.000000,2.000000
13181,2026-07-29T17:09:30.881+08:00,2,0.004000,0,1002,8,996,2,2.000000,8.000000,-4.000000,2.000000
13182,2026-07-29T17:09:30.886+08:00,3,0.006000,0,1008,8,996,2,8.000000,8.000000,-4.000000,2.000000
13183,2026-07-29T17:09:30.886+08:00,4,0.008000,0,1004,8,999,2,4.000000,8.000000,-1.000000,2.000000
13184,2026-07-29T17:09:30.886+08:00,5,0.010000,0,995,8,1002,2,-5.000000,8.000000,2.000000,2.000000
13185,2026-07-29T17:09:30.886+08:00,6,0.012000,0,993,8,1003,2,-7.000000,8.000000,3.000000,2.000000
13186,2026-07-29T17:09:30.886+08:00,7,0.014000,0,1000,8,1002,2,0.000000,8.000000,2.000000,2.000000
13187,2026-07-29T17:09:30.886+08:00,8,0.016000,0,1006,8,999,2,6.000000,8.000000,-1.000000,2.000000
13188,2026-07-29T17:09:30.898+08:00,9,0.018000,0,1003,8,996,2,3.000000,8.000000,-4.000000,2.000000
13189,2026-07-29T17:09:30.906+08:00,10,0.020000,0,996,8,996,2,-4.000000,8.000000,-4.000000,2.000000
13190,2026-07-29T17:09:30.914+08:00,11,0.022000,0,995,8,1000,2,-5.000000,8.000000,0.000000,2.000000
13191,2026-07-29T17:09:30.914+08:00,12,0.024000,0,999,8,1003,2,-1.000000,8.000000,3.000000,2.000000
13192,2026-07-29T17:09:30.914+08:00,13,0.026000,0,1003,8,1002,2,3.000000,8.000000,2.000000,2.000000
13193,2026-07-29T17:09:30.914+08:00,14,0.028000,0,1001,8,998,2,1.000000,8.000000,-2.000000,2.000000
13194,2026-07-29T17:09:30.914+08:00,15,0.030000,0,998,8,998,2,-2.000000,8.000000,-2.000000,2.000000
13195,2026-07-29T17:09:30.914+08:00,16,0.032000,0,998,8,1000,2,-2.000000,8.000000,0.000000,2.000000
13196,2026-07-29T17:09:30.916+08:00,17,0.034000,0,1001,8,1001,2,1.000000,8.000000,1.000000,2.000000
13197,2026-07-29T17:09:30.916+08:00,18,0.036000,0,1003,8,999,2,3.000000,8.000000,-1.000000,2.000000
13198,2026-07-29T17:09:30.916+08:00,19,0.038000,0,1001,8,998,2,1.000000,8.000000,-2.000000,2.000000
13199,2026-07-29T17:09:30.927+08:00,20,0.040000,0,996,8,999,2,-4.000000,8.000000,-1.000000,2.000000
13200,2026-07-29T17:09:30.927+08:00,21,0.042000,0,995,8,1001,2,-5.000000,8.000000,1.000000,2.000000
13201,2026-07-29T17:09:30.927+08:00,22,0.044000,0,998,8,1001,2,-2.000000,8.000000,1.000000,2.000000
13202,2026-07-29T17:09:30.927+08:00,23,0.046000,0,1001,8,1000,2,1.000000,8.000000,0.000000,2.000000
13203,2026-07-29T17:09:30.927+08:00,24,0.048000,0,1001,8,1000,2,1.000000,8.000000,0.000000,2.000000
13204,2026-07-29T17:09:30.927+08:00,25,0.050000,0,999,8,1000,2,-1.000000,8.000000,0.000000,2.000000
13205,2026-07-29T17:09:30.927+08:00,26,0.052000,0,1000,6,998,2,0.000000,6.000000,-2.000000,2.000000
13206,2026-07-29T17:09:30.927+08:00,27,0.054000,0,1003,6,996,2,3.000000,6.000000,-4.000000,2.000000
13207,2026-07-29T17:09:30.927+08:00,28,0.056000,0,1002,6,998,2,2.000000,6.000000,-2.000000,2.000000
13208,2026-07-29T17:09:30.927+08:00,29,0.058000,0,997,6,1002,2,-3.000000,6.000000,2.000000,2.000000
13209,2026-07-29T17:09:30.927+08:00,30,0.060000,0,993,6,1005,2,-7.000000,6.000000,5.000000,2.000000
13210,2026-07-29T17:09:30.927+08:00,31,0.062000,0,996,6,1001,2,-4.000000,6.000000,1.000000,2.000000
13211,2026-07-29T17:09:30.927+08:00,32,0.064000,0,1003,6,995,2,3.000000,6.000000,-5.000000,2.000000
13212,2026-07-29T17:09:30.927+08:00,33,0.066000,0,1005,6,994,2,5.000000,6.000000,-6.000000,2.000000
13213,2026-07-29T17:09:30.944+08:00,34,0.068000,0,1002,6,998,2,2.000000,6.000000,-2.000000,2.000000
13214,2026-07-29T17:09:30.944+08:00,35,0.070000,0,996,6,1001,2,-4.000000,6.000000,1.000000,2.000000
13215,2026-07-29T17:09:30.944+08:00,36,0.072000,0,994,6,1003,2,-6.000000,6.000000,3.000000,2.000000
13216,2026-07-29T17:09:30.944+08:00,37,0.074000,0,998,6,1000,2,-2.000000,6.000000,0.000000,2.000000
13217,2026-07-29T17:09:30.944+08:00,38,0.076000,0,1003,6,996,2,3.000000,6.000000,-4.000000,2.000000
13218,2026-07-29T17:09:30.944+08:00,39,0.078000,0,1003,6,996,2,3.000000,6.000000,-4.000000,2.000000
13219,2026-07-29T17:09:30.944+08:00,40,0.080000,0,999,6,1001,2,-1.000000,6.000000,1.000000,2.000000
13220,2026-07-29T17:09:30.944+08:00,41,0.082000,0,997,6,1005,2,-3.000000,6.000000,5.000000,2.000000
13221,2026-07-29T17:09:30.944+08:00,42,0.084000,0,999,6,1003,2,-1.000000,6.000000,3.000000,2.000000
13222,2026-07-29T17:09:30.944+08:00,43,0.086000,0,1004,6,997,2,4.000000,6.000000,-3.000000,2.000000
13223,2026-07-29T17:09:30.944+08:00,44,0.088000,0,1003,6,994,2,3.000000,6.000000,-6.000000,2.000000
13224,2026-07-29T17:09:30.944+08:00,45,0.090000,0,997,6,997,2,-3.000000,6.000000,-3.000000,2.000000
13225,2026-07-29T17:09:30.944+08:00,46,0.092000,0,993,6,1002,2,-7.000000,6.000000,2.000000,2.000000
13226,2026-07-29T17:09:30.944+08:00,47,0.094000,0,995,6,1004,2,-5.000000,6.000000,4.000000,2.000000
13227,2026-07-29T17:09:30.944+08:00,48,0.096000,0,1003,6,1003,2,3.000000,6.000000,3.000000,2.000000
13228,2026-07-29T17:09:30.947+08:00,49,0.098000,0,1005,6,1000,2,5.000000,6.000000,0.000000,2.000000
13229,2026-07-29T17:09:30.947+08:00,50,0.100000,0,1001,6,996,2,1.000000,6.000000,-4.000000,2.000000
13230,2026-07-29T17:09:30.947+08:00,51,0.102000,0,996,6,995,2,-4.000000,6.000000,-5.000000,2.000000
13231,2026-07-29T17:09:30.948+08:00,52,0.104000,0,1002,6,1003,2,2.000000,6.000000,3.000000,2.000000
13232,2026-07-29T17:09:30.953+08:00,53,0.106000,0,1002,6,1006,2,2.000000,6.000000,6.000000,2.000000
13233,2026-07-29T17:09:30.953+08:00,54,0.108000,0,997,6,1003,2,-3.000000,6.000000,3.000000,2.000000
13234,2026-07-29T17:09:30.953+08:00,55,0.110000,0,994,6,996,2,-6.000000,6.000000,-4.000000,2.000000
13235,2026-07-29T17:09:30.956+08:00,56,0.112000,0,999,6,993,2,-1.000000,6.000000,-7.000000,2.000000
13236,2026-07-29T17:09:30.956+08:00,57,0.114000,0,1004,6,997,2,4.000000,6.000000,-3.000000,2.000000
13237,2026-07-29T17:09:30.956+08:00,58,0.116000,0,1003,6,1004,2,3.000000,6.000000,4.000000,2.000000
13238,2026-07-29T17:09:30.960+08:00,59,0.118000,0,997,6,1005,2,-3.000000,6.000000,5.000000,2.000000
13239,2026-07-29T17:09:30.960+08:00,60,0.120000,0,995,6,1000,2,-5.000000,6.000000,0.000000,2.000000
13240,2026-07-29T17:09:30.960+08:00,61,0.122000,0,1001,6,995,2,1.000000,6.000000,-5.000000,2.000000
13241,2026-07-29T17:09:31.018+08:00,62,0.124000,0,1006,6,997,2,6.000000,6.000000,-3.000000,2.000000
13242,2026-07-29T17:09:31.018+08:00,63,0.126000,0,1002,6,1001,2,2.000000,6.000000,1.000000,2.000000
13243,2026-07-29T17:09:31.018+08:00,64,0.128000,0,993,6,1001,2,-7.000000,6.000000,1.000000,2.000000
13244,2026-07-29T17:09:31.018+08:00,65,0.130000,0,992,6,998,2,-8.000000,6.000000,-2.000000,2.000000
13245,2026-07-29T17:09:31.018+08:00,66,0.132000,0,1002,6,998,2,2.000000,6.000000,-2.000000,2.000000
13246,2026-07-29T17:09:31.018+08:00,67,0.134000,0,1008,6,1001,2,8.000000,6.000000,1.000000,2.000000
13247,2026-07-29T17:09:31.018+08:00,68,0.136000,0,1000,6,1003,2,0.000000,6.000000,3.000000,2.000000
13248,2026-07-29T17:09:31.018+08:00,69,0.138000,0,991,6,999,2,-9.000000,6.000000,-1.000000,2.000000
13249,2026-07-29T17:09:31.018+08:00,70,0.140000,0,995,6,996,2,-5.000000,6.000000,-4.000000,2.000000
13250,2026-07-29T17:09:31.018+08:00,71,0.142000,0,1007,6,997,2,7.000000,6.000000,-3.000000,2.000000
13251,2026-07-29T17:09:31.018+08:00,72,0.144000,0,1010,6,1002,2,10.000000,6.000000,2.000000,2.000000
13252,2026-07-29T17:09:31.018+08:00,73,0.146000,0,1000,6,1002,2,0.000000,6.000000,2.000000,2.000000
13253,2026-07-29T17:09:31.018+08:00,74,0.148000,0,988,6,999,2,-12.000000,6.000000,-1.000000,2.000000
13254,2026-07-29T17:09:31.018+08:00,75,0.150000,0,990,6,997,2,-10.000000,6.000000,-3.000000,2.000000
13255,2026-07-29T17:09:31.018+08:00,76,0.152000,0,1002,6,1000,2,2.000000,6.000000,0.000000,2.000000
13256,2026-07-29T17:09:31.018+08:00,77,0.154000,0,1009,6,1002,2,9.000000,6.000000,2.000000,2.000000
13257,2026-07-29T17:09:31.020+08:00,78,0.156000,0,1003,6,1001,2,3.000000,6.000000,1.000000,2.000000
13258,2026-07-29T17:09:31.020+08:00,79,0.158000,0,995,6,997,2,-5.000000,6.000000,-3.000000,2.000000
13259,2026-07-29T17:09:31.057+08:00,80,0.160000,0,995,6,995,2,-5.000000,6.000000,-5.000000,2.000000
13260,2026-07-29T17:09:31.088+08:00,81,0.162000,0,1003,6,998,2,3.000000,6.000000,-2.000000,2.000000
13261,2026-07-29T17:09:31.088+08:00,82,0.164000,0,1005,6,1004,2,5.000000,6.000000,4.000000,2.000000
13262,2026-07-29T17:09:31.088+08:00,83,0.166000,0,999,6,1006,2,-1.000000,6.000000,6.000000,2.000000
13263,2026-07-29T17:09:31.088+08:00,84,0.168000,0,992,6,1001,2,-8.000000,6.000000,1.000000,2.000000
13264,2026-07-29T17:09:31.088+08:00,85,0.170000,0,996,6,994,2,-4.000000,6.000000,-6.000000,2.000000
13265,2026-07-29T17:09:31.088+08:00,86,0.172000,0,1005,6,992,2,5.000000,6.000000,-8.000000,2.000000
13266,2026-07-29T17:09:31.088+08:00,87,0.174000,0,1006,6,999,2,6.000000,6.000000,-1.000000,2.000000
13267,2026-07-29T17:09:31.088+08:00,88,0.176000,0,998,6,1005,2,-2.000000,6.000000,5.000000,2.000000
13268,2026-07-29T17:09:31.088+08:00,89,0.178000,0,992,6,1006,2,-8.000000,6.000000,6.000000,2.000000
13269,2026-07-29T17:09:31.088+08:00,90,0.180000,0,997,6,1000,2,-3.000000,6.000000,0.000000,2.000000
13270,2026-07-29T17:09:31.088+08:00,91,0.182000,0,1006,6,995,2,6.000000,6.000000,-5.000000,2.000000
13271,2026-07-29T17:09:31.088+08:00,92,0.184000,0,1007,6,994,4,7.000000,6.000000,-6.000000,4.000000
13272,2026-07-29T17:09:31.088+08:00,93,0.186000,0,998,6,999,4,-2.000000,6.000000,-1.000000,4.000000
13273,2026-07-29T17:09:31.088+08:00,94,0.188000,0,991,6,1003,4,-9.000000,6.000000,3.000000,4.000000
13274,2026-07-29T17:09:31.088+08:00,95,0.190000,0,994,6,1003,4,-6.000000,6.000000,3.000000,4.000000
13275,2026-07-29T17:09:31.090+08:00,96,0.192000,0,993,6,1001,4,-7.000000,6.000000,1.000000,4.000000
13276,2026-07-29T17:09:31.090+08:00,97,0.194000,0,1006,6,998,4,6.000000,6.000000,-2.000000,4.000000
13277,2026-07-29T17:09:31.090+08:00,98,0.196000,0,1012,6,996,4,12.000000,6.000000,-4.000000,4.000000
13278,2026-07-29T17:09:31.093+08:00,99,0.198000,0,1004,6,999,4,4.000000,6.000000,-1.000000,4.000000
13279,2026-07-29T17:09:31.093+08:00,100,0.200000,0,991,6,1003,4,-9.000000,6.000000,3.000000,4.000000
13280,2026-07-29T17:09:31.093+08:00,101,0.202000,0,987,6,1004,4,-13.000000,6.000000,4.000000,4.000000
13281,2026-07-29T17:09:31.096+08:00,102,0.204000,0,996,6,999,4,-4.000000,6.000000,-1.000000,4.000000
13282,2026-07-29T17:09:31.096+08:00,103,0.206000,0,1006,6,993,4,6.000000,6.000000,-7.000000,4.000000
13283,2026-07-29T17:09:31.096+08:00,104,0.208000,0,1008,6,994,4,8.000000,6.000000,-6.000000,4.000000
13284,2026-07-29T17:09:31.159+08:00,105,0.210000,0,1002,6,1002,4,2.000000,6.000000,2.000000,4.000000
13285,2026-07-29T17:09:31.159+08:00,106,0.212000,0,997,6,1008,4,-3.000000,6.000000,8.000000,4.000000
13286,2026-07-29T17:09:31.159+08:00,107,0.214000,0,998,6,1004,4,-2.000000,6.000000,4.000000,4.000000
13287,2026-07-29T17:09:31.159+08:00,108,0.216000,0,1000,6,995,4,0.000000,6.000000,-5.000000,4.000000
13288,2026-07-29T17:09:31.159+08:00,109,0.218000,0,999,6,992,4,-1.000000,6.000000,-8.000000,4.000000
13289,2026-07-29T17:09:31.159+08:00,110,0.220000,0,995,6,998,4,-5.000000,6.000000,-2.000000,4.000000
13290,2026-07-29T17:09:31.159+08:00,111,0.222000,0,997,6,1004,4,-3.000000,6.000000,4.000000,4.000000
13291,2026-07-29T17:09:31.159+08:00,112,0.224000,0,1003,6,1004,4,3.000000,6.000000,4.000000,4.000000
13292,2026-07-29T17:09:31.159+08:00,113,0.226000,0,1006,6,999,4,6.000000,6.000000,-1.000000,4.000000
13293,2026-07-29T17:09:31.159+08:00,114,0.228000,0,1001,6,996,4,1.000000,6.000000,-4.000000,4.000000
13294,2026-07-29T17:09:31.159+08:00,115,0.230000,0,993,6,998,4,-7.000000,6.000000,-2.000000,4.000000
13295,2026-07-29T17:09:31.159+08:00,116,0.232000,0,992,6,1002,4,-8.000000,6.000000,2.000000,4.000000
13296,2026-07-29T17:09:31.159+08:00,117,0.234000,0,1000,6,1002,4,0.000000,6.000000,2.000000,4.000000
13297,2026-07-29T17:09:31.159+08:00,118,0.236000,0,1007,6,999,4,7.000000,6.000000,-1.000000,4.000000
13298,2026-07-29T17:09:31.159+08:00,119,0.238000,0,1006,6,997,4,6.000000,6.000000,-3.000000,4.000000
13299,2026-07-29T17:09:31.159+08:00,120,0.240000,0,998,6,998,4,-2.000000,6.000000,-2.000000,4.000000
13300,2026-07-29T17:09:31.159+08:00,121,0.242000,0,993,6,1000,4,-7.000000,6.000000,0.000000,4.000000
13301,2026-07-29T17:09:31.159+08:00,122,0.244000,0,996,6,1002,4,-4.000000,6.000000,2.000000,4.000000
13302,2026-07-29T17:09:31.159+08:00,123,0.246000,0,1001,6,1001,4,1.000000,6.000000,1.000000,4.000000
13303,2026-07-29T17:09:31.159+08:00,124,0.248000,0,1001,6,1000,4,1.000000,6.000000,0.000000,4.000000
13304,2026-07-29T17:09:31.159+08:00,125,0.250000,0,999,6,999,4,-1.000000,6.000000,-1.000000,4.000000
13305,2026-07-29T17:09:31.159+08:00,126,0.252000,0,1000,6,997,4,0.000000,6.000000,-3.000000,4.000000
13306,2026-07-29T17:09:31.159+08:00,127,0.254000,0,1005,6,997,4,5.000000,6.000000,-3.000000,4.000000
13307,2026-07-29T17:09:31.159+08:00,128,0.256000,0,1005,6,1000,4,5.000000,6.000000,0.000000,4.000000
13308,2026-07-29T17:09:31.159+08:00,129,0.258000,0,997,6,1003,4,-3.000000,6.000000,3.000000,4.000000
13309,2026-07-29T17:09:31.162+08:00,130,0.260000,0,1003,6,1002,4,3.000000,6.000000,2.000000,4.000000
13310,2026-07-29T17:09:31.162+08:00,131,0.262000,0,995,6,1003,4,-5.000000,6.000000,3.000000,4.000000
13311,2026-07-29T17:09:31.165+08:00,132,0.264000,0,995,6,998,4,-5.000000,6.000000,-2.000000,4.000000
13312,2026-07-29T17:09:31.165+08:00,133,0.266000,0,1001,6,995,4,1.000000,6.000000,-5.000000,4.000000
13313,2026-07-29T17:09:31.165+08:00,134,0.268000,0,1005,6,999,4,5.000000,6.000000,-1.000000,4.000000
13314,2026-07-29T17:09:31.168+08:00,135,0.270000,0,1002,6,1004,4,2.000000,6.000000,4.000000,4.000000
13315,2026-07-29T17:09:31.168+08:00,136,0.272000,0,994,6,1004,4,-6.000000,6.000000,4.000000,4.000000
13316,2026-07-29T17:09:31.168+08:00,137,0.274000,0,992,6,997,4,-8.000000,6.000000,-3.000000,4.000000
13317,2026-07-29T17:09:31.170+08:00,138,0.276000,0,999,6,993,4,-1.000000,6.000000,-7.000000,4.000000
13318,2026-07-29T17:09:31.179+08:00,139,0.278000,0,1007,6,998,4,7.000000,6.000000,-2.000000,4.000000
13319,2026-07-29T17:09:31.179+08:00,140,0.280000,0,1005,6,1005,4,5.000000,6.000000,5.000000,4.000000
13320,2026-07-29T17:09:31.179+08:00,141,0.282000,0,996,6,1005,4,-4.000000,6.000000,5.000000,4.000000
13321,2026-07-29T17:09:31.187+08:00,142,0.284000,0,991,8,999,4,-9.000000,8.000000,-1.000000,4.000000
13322,2026-07-29T17:09:31.187+08:00,143,0.286000,0,998,8,994,4,-2.000000,8.000000,-6.000000,4.000000
13323,2026-07-29T17:09:31.187+08:00,144,0.288000,0,1008,8,997,4,8.000000,8.000000,-3.000000,4.000000
13324,2026-07-29T17:09:31.187+08:00,145,0.290000,0,1008,8,1001,4,8.000000,8.000000,1.000000,4.000000
13325,2026-07-29T17:09:31.187+08:00,146,0.292000,0,998,8,1002,4,-2.000000,8.000000,2.000000,4.000000
13326,2026-07-29T17:09:31.187+08:00,147,0.294000,0,991,8,1000,4,-9.000000,8.000000,0.000000,4.000000
13327,2026-07-29T17:09:31.187+08:00,148,0.296000,0,994,8,1000,4,-6.000000,8.000000,0.000000,4.000000
13328,2026-07-29T17:09:31.187+08:00,149,0.298000,0,1002,8,1000,4,2.000000,8.000000,0.000000,4.000000
13329,2026-07-29T17:09:31.187+08:00,150,0.300000,0,1005,8,999,4,5.000000,8.000000,-1.000000,4.000000
13330,2026-07-29T17:09:31.192+08:00,151,0.302000,0,1000,8,997,4,0.000000,8.000000,-3.000000,4.000000
13331,2026-07-29T17:09:31.192+08:00,152,0.304000,0,997,8,998,4,-3.000000,8.000000,-2.000000,4.000000
13332,2026-07-29T17:09:31.192+08:00,153,0.306000,0,1002,8,1000,4,2.000000,8.000000,0.000000,4.000000
13333,2026-07-29T17:09:31.216+08:00,154,0.308000,0,994,8,998,4,-6.000000,8.000000,-2.000000,4.000000
13334,2026-07-29T17:09:31.216+08:00,155,0.310000,0,998,8,1001,4,-2.000000,8.000000,1.000000,4.000000
13335,2026-07-29T17:09:31.216+08:00,156,0.312000,0,1002,8,1002,4,2.000000,8.000000,2.000000,4.000000
13336,2026-07-29T17:09:31.216+08:00,157,0.314000,0,1003,8,999,4,3.000000,8.000000,-1.000000,4.000000
13337,2026-07-29T17:09:31.216+08:00,158,0.316000,0,1000,8,996,4,0.000000,8.000000,-4.000000,4.000000
13338,2026-07-29T17:09:31.216+08:00,159,0.318000,0,999,8,999,4,-1.000000,8.000000,-1.000000,4.000000
13339,2026-07-29T17:09:31.216+08:00,160,0.320000,0,1000,8,1004,4,0.000000,8.000000,4.000000,4.000000
13340,2026-07-29T17:09:31.216+08:00,161,0.322000,0,1000,6,1003,4,0.000000,6.000000,3.000000,4.000000
13341,2026-07-29T17:09:31.216+08:00,162,0.324000,0,998,6,997,4,-2.000000,6.000000,-3.000000,4.000000
13342,2026-07-29T17:09:31.234+08:00,163,0.326000,0,998,6,994,4,-2.000000,6.000000,-6.000000,4.000000
13343,2026-07-29T17:09:31.234+08:00,164,0.328000,0,1000,6,998,4,0.000000,6.000000,-2.000000,4.000000
13344,2026-07-29T17:09:31.234+08:00,165,0.330000,0,1001,6,996,4,1.000000,6.000000,-4.000000,4.000000
13345,2026-07-29T17:09:31.234+08:00,166,0.332000,0,1006,6,1002,4,6.000000,6.000000,2.000000,4.000000
13346,2026-07-29T17:09:31.234+08:00,167,0.334000,0,1003,6,1005,4,3.000000,6.000000,5.000000,4.000000
13347,2026-07-29T17:09:31.234+08:00,168,0.336000,0,996,6,1001,4,-4.000000,6.000000,1.000000,4.000000
13348,2026-07-29T17:09:31.234+08:00,169,0.338000,0,992,6,996,4,-8.000000,6.000000,-4.000000,4.000000
13349,2026-07-29T17:09:31.234+08:00,170,0.340000,0,997,6,997,4,-3.000000,6.000000,-3.000000,4.000000
13350,2026-07-29T17:09:31.234+08:00,171,0.342000,0,1005,6,1000,4,5.000000,6.000000,0.000000,4.000000
13351,2026-07-29T17:09:31.234+08:00,172,0.344000,0,1006,6,1002,4,6.000000,6.000000,2.000000,4.000000
13352,2026-07-29T17:09:31.234+08:00,173,0.346000,0,998,6,1000,4,-2.000000,6.000000,0.000000,4.000000
13353,2026-07-29T17:09:31.234+08:00,174,0.348000,0,992,8,1000,4,-8.000000,8.000000,0.000000,4.000000
13354,2026-07-29T17:09:31.267+08:00,175,0.350000,0,996,6,999,4,-4.000000,6.000000,-1.000000,4.000000
13355,2026-07-29T17:09:31.267+08:00,176,0.352000,0,1005,8,998,4,5.000000,8.000000,-2.000000,4.000000
13356,2026-07-29T17:09:31.267+08:00,177,0.354000,0,1008,8,997,4,8.000000,8.000000,-3.000000,4.000000
13357,2026-07-29T17:09:31.272+08:00,178,0.356000,0,1002,6,999,4,2.000000,6.000000,-1.000000,4.000000
13358,2026-07-29T17:09:31.272+08:00,179,0.358000,0,994,8,1003,4,-6.000000,8.000000,3.000000,4.000000
13359,2026-07-29T17:09:31.288+08:00,180,0.360000,0,991,8,1003,4,-9.000000,8.000000,3.000000,4.000000
13360,2026-07-29T17:09:31.288+08:00,181,0.362000,0,997,8,999,4,-3.000000,8.000000,-1.000000,4.000000
13361,2026-07-29T17:09:31.288+08:00,182,0.364000,0,1004,6,995,4,4.000000,6.000000,-5.000000,4.000000
13362,2026-07-29T17:09:31.288+08:00,183,0.366000,0,1004,6,996,4,4.000000,6.000000,-4.000000,4.000000
13363,2026-07-29T17:09:31.288+08:00,184,0.368000,0,1000,6,1002,4,0.000000,6.000000,2.000000,4.000000
13364,2026-07-29T17:09:31.288+08:00,185,0.370000,0,998,6,1005,4,-2.000000,6.000000,5.000000,4.000000
13365,2026-07-29T17:09:31.305+08:00,186,0.372000,0,1000,6,1002,4,0.000000,6.000000,2.000000,4.000000
13366,2026-07-29T17:09:31.305+08:00,187,0.374000,0,1000,6,997,4,0.000000,6.000000,-3.000000,4.000000
13367,2026-07-29T17:09:31.305+08:00,188,0.376000,0,998,6,995,4,-2.000000,6.000000,-5.000000,4.000000
13368,2026-07-29T17:09:31.305+08:00,189,0.378000,0,997,6,998,4,-3.000000,6.000000,-2.000000,4.000000
13369,2026-07-29T17:09:31.305+08:00,190,0.380000,0,999,6,1001,4,-1.000000,6.000000,1.000000,4.000000
13370,2026-07-29T17:09:31.305+08:00,191,0.382000,0,1002,6,1002,4,2.000000,6.000000,2.000000,4.000000
13371,2026-07-29T17:09:31.305+08:00,192,0.384000,0,1001,6,1000,4,1.000000,6.000000,0.000000,4.000000
13372,2026-07-29T17:09:31.305+08:00,193,0.386000,0,998,6,999,4,-2.000000,6.000000,-1.000000,4.000000
13373,2026-07-29T17:09:31.305+08:00,194,0.388000,0,997,6,1000,4,-3.000000,6.000000,0.000000,4.000000
13374,2026-07-29T17:09:31.305+08:00,195,0.390000,0,999,6,1000,4,-1.000000,6.000000,0.000000,4.000000
13375,2026-07-29T17:09:31.305+08:00,196,0.392000,0,1003,6,999,4,3.000000,6.000000,-1.000000,4.000000
13376,2026-07-29T17:09:31.305+08:00,197,0.394000,0,1003,6,998,4,3.000000,6.000000,-2.000000,4.000000
13377,2026-07-29T17:09:31.305+08:00,198,0.396000,0,1000,6,999,4,0.000000,6.000000,-1.000000,4.000000
13378,2026-07-29T17:09:31.359+08:00,199,0.398000,0,996,6,1000,4,-4.000000,6.000000,0.000000,4.000000
13379,2026-07-29T17:09:31.359+08:00,200,0.400000,0,997,6,1000,4,-3.000000,6.000000,0.000000,4.000000
13380,2026-07-29T17:09:31.359+08:00,201,0.402000,0,1000,6,1001,4,0.000000,6.000000,1.000000,4.000000
13381,2026-07-29T17:09:31.359+08:00,202,0.404000,0,1001,6,1001,2,1.000000,6.000000,1.000000,2.000000
13382,2026-07-29T17:09:31.359+08:00,203,0.406000,0,997,6,1000,2,-3.000000,6.000000,0.000000,2.000000
13383,2026-07-29T17:09:31.359+08:00,204,0.408000,0,997,6,997,2,-3.000000,6.000000,-3.000000,2.000000
13384,2026-07-29T17:09:31.377+08:00,205,0.410000,0,1002,6,996,2,2.000000,6.000000,-4.000000,2.000000
13385,2026-07-29T17:09:31.377+08:00,206,0.412000,0,1008,6,999,2,8.000000,6.000000,-1.000000,2.000000
13386,2026-07-29T17:09:31.377+08:00,207,0.414000,0,1005,6,1004,2,5.000000,6.000000,4.000000,2.000000
13387,2026-07-29T17:09:31.377+08:00,208,0.416000,0,994,6,1005,2,-6.000000,6.000000,5.000000,2.000000
13388,2026-07-29T17:09:31.377+08:00,209,0.418000,0,988,6,1000,2,-12.000000,6.000000,0.000000,2.000000
13389,2026-07-29T17:09:31.377+08:00,210,0.420000,0,993,6,995,2,-7.000000,6.000000,-5.000000,2.000000
13390,2026-07-29T17:09:31.377+08:00,211,0.422000,0,1006,6,993,4,6.000000,6.000000,-7.000000,4.000000
13391,2026-07-29T17:09:31.377+08:00,212,0.424000,0,1011,6,998,4,11.000000,6.000000,-2.000000,4.000000
13392,2026-07-29T17:09:31.377+08:00,213,0.426000,0,1003,6,1004,4,3.000000,6.000000,4.000000,4.000000
13393,2026-07-29T17:09:31.377+08:00,214,0.428000,0,991,6,1006,4,-9.000000,6.000000,6.000000,4.000000
13394,2026-07-29T17:09:31.377+08:00,215,0.430000,0,991,6,1001,4,-9.000000,6.000000,1.000000,4.000000
13395,2026-07-29T17:09:31.377+08:00,216,0.432000,0,1001,6,994,4,1.000000,6.000000,-6.000000,4.000000
13396,2026-07-29T17:09:31.377+08:00,217,0.434000,0,1009,6,993,4,9.000000,6.000000,-7.000000,4.000000
13397,2026-07-29T17:09:31.377+08:00,218,0.436000,0,1005,6,999,4,5.000000,6.000000,-1.000000,4.000000
13398,2026-07-29T17:09:31.377+08:00,219,0.438000,0,995,6,1005,4,-5.000000,6.000000,5.000000,4.000000
13399,2026-07-29T17:09:31.377+08:00,220,0.440000,0,992,6,1004,4,-8.000000,6.000000,4.000000,4.000000
13400,2026-07-29T17:09:31.377+08:00,221,0.442000,0,997,6,998,4,-3.000000,6.000000,-2.000000,4.000000
13401,2026-07-29T17:09:31.377+08:00,222,0.444000,0,1003,6,995,4,3.000000,6.000000,-5.000000,4.000000
13402,2026-07-29T17:09:31.447+08:00,223,0.446000,0,1001,6,999,2,1.000000,6.000000,-1.000000,2.000000
13403,2026-07-29T17:09:31.447+08:00,224,0.448000,0,1003,6,996,4,3.000000,6.000000,-4.000000,4.000000
13404,2026-07-29T17:09:31.447+08:00,225,0.450000,0,999,6,998,2,-1.000000,6.000000,-2.000000,2.000000
13405,2026-07-29T17:09:31.447+08:00,226,0.452000,0,995,6,1001,2,-5.000000,6.000000,1.000000,2.000000
13406,2026-07-29T17:09:31.447+08:00,227,0.454000,0,996,6,1001,2,-4.000000,6.000000,1.000000,2.000000
13407,2026-07-29T17:09:31.447+08:00,228,0.456000,0,1002,6,999,2,2.000000,6.000000,-1.000000,2.000000
13408,2026-07-29T17:09:31.447+08:00,229,0.458000,0,1003,6,999,2,3.000000,6.000000,-1.000000,2.000000
13409,2026-07-29T17:09:31.447+08:00,230,0.460000,0,999,6,1000,2,-1.000000,6.000000,0.000000,2.000000
13410,2026-07-29T17:09:31.447+08:00,231,0.462000,0,994,6,1001,2,-6.000000,6.000000,1.000000,2.000000
13411,2026-07-29T17:09:31.447+08:00,232,0.464000,0,998,6,998,2,-2.000000,6.000000,-2.000000,2.000000
13412,2026-07-29T17:09:31.447+08:00,233,0.466000,0,1006,6,997,2,6.000000,6.000000,-3.000000,2.000000
13413,2026-07-29T17:09:31.447+08:00,234,0.468000,0,1007,6,998,2,7.000000,6.000000,-2.000000,2.000000
13414,2026-07-29T17:09:31.447+08:00,235,0.470000,0,999,6,1002,2,-1.000000,6.000000,2.000000,2.000000
13415,2026-07-29T17:09:31.447+08:00,236,0.472000,0,990,6,1003,2,-10.000000,6.000000,3.000000,2.000000
13416,2026-07-29T17:09:31.447+08:00,237,0.474000,0,992,6,1000,2,-8.000000,6.000000,0.000000,2.000000
13417,2026-07-29T17:09:31.447+08:00,238,0.476000,0,1002,6,996,2,2.000000,6.000000,-4.000000,2.000000
13418,2026-07-29T17:09:31.447+08:00,239,0.478000,0,1008,6,996,2,8.000000,6.000000,-4.000000,2.000000
13419,2026-07-29T17:09:31.447+08:00,240,0.480000,0,1002,6,1000,2,2.000000,6.000000,0.000000,2.000000
13420,2026-07-29T17:09:31.447+08:00,241,0.482000,0,994,6,1003,2,-6.000000,6.000000,3.000000,2.000000
13421,2026-07-29T17:09:31.447+08:00,242,0.484000,0,995,6,1000,2,-5.000000,6.000000,0.000000,2.000000
13422,2026-07-29T17:09:31.447+08:00,243,0.486000,0,1003,6,997,2,3.000000,6.000000,-3.000000,2.000000
13423,2026-07-29T17:09:31.447+08:00,244,0.488000,0,1006,6,998,2,6.000000,6.000000,-2.000000,2.000000
13424,2026-07-29T17:09:31.447+08:00,245,0.490000,0,1000,6,1002,2,0.000000,6.000000,2.000000,2.000000
13425,2026-07-29T17:09:31.447+08:00,246,0.492000,0,993,6,1002,2,-7.000000,6.000000,2.000000,2.000000
13426,2026-07-29T17:09:31.447+08:00,247,0.494000,0,994,6,999,2,-6.000000,6.000000,-1.000000,2.000000
13427,2026-07-29T17:09:31.447+08:00,248,0.496000,0,1001,6,996,2,1.000000,6.000000,-4.000000,2.000000
13428,2026-07-29T17:09:31.450+08:00,249,0.498000,0,1005,6,997,2,5.000000,6.000000,-3.000000,2.000000
13429,2026-07-29T17:09:31.450+08:00,250,0.500000,0,1002,6,1001,2,2.000000,6.000000,1.000000,2.000000
13430,2026-07-29T17:09:31.450+08:00,251,0.502000,0,997,6,1003,2,-3.000000,6.000000,3.000000,2.000000
13431,2026-07-29T17:09:31.453+08:00,252,0.504000,0,996,6,1002,2,-4.000000,6.000000,2.000000,2.000000
13432,2026-07-29T17:09:31.453+08:00,253,0.506000,0,1000,6,998,2,0.000000,6.000000,-2.000000,2.000000
13433,2026-07-29T17:09:31.453+08:00,254,0.508000,0,1004,6,997,2,4.000000,6.000000,-3.000000,2.000000
13434,2026-07-29T17:09:31.481+08:00,255,0.510000,0,1001,6,1003,2,1.000000,6.000000,3.000000,2.000000
13435,2026-07-29T17:09:31.481+08:00,256,0.512000,0,1002,6,1001,2,2.000000,6.000000,1.000000,2.000000
13436,2026-07-29T17:09:31.481+08:00,257,0.514000,0,999,6,997,2,-1.000000,6.000000,-3.000000,2.000000
13437,2026-07-29T17:09:31.503+08:00,258,0.516000,0,997,6,995,2,-3.000000,6.000000,-5.000000,2.000000
13438,2026-07-29T17:09:31.503+08:00,259,0.518000,0,1001,6,997,2,1.000000,6.000000,-3.000000,2.000000
13439,2026-07-29T17:09:31.503+08:00,260,0.520000,0,1004,6,1001,2,4.000000,6.000000,1.000000,2.000000
13440,2026-07-29T17:09:31.503+08:00,261,0.522000,0,1002,6,1002,2,2.000000,6.000000,2.000000,2.000000
13441,2026-07-29T17:09:31.503+08:00,262,0.524000,0,995,6,1002,2,-5.000000,6.000000,2.000000,2.000000
13442,2026-07-29T17:09:31.503+08:00,263,0.526000,0,993,6,1001,2,-7.000000,6.000000,1.000000,2.000000
13443,2026-07-29T17:09:31.503+08:00,264,0.528000,0,999,6,999,2,-1.000000,6.000000,-1.000000,2.000000
13444,2026-07-29T17:09:31.503+08:00,265,0.530000,0,1004,6,997,2,4.000000,6.000000,-3.000000,2.000000
13445,2026-07-29T17:09:31.503+08:00,266,0.532000,0,1003,6,996,2,3.000000,6.000000,-4.000000,2.000000
13446,2026-07-29T17:09:31.519+08:00,267,0.534000,0,997,6,999,2,-3.000000,6.000000,-1.000000,2.000000
13447,2026-07-29T17:09:31.519+08:00,268,0.536000,0,997,6,1003,2,-3.000000,6.000000,3.000000,2.000000
13448,2026-07-29T17:09:31.519+08:00,269,0.538000,0,1002,6,1005,2,2.000000,6.000000,5.000000,2.000000
13449,2026-07-29T17:09:31.519+08:00,270,0.540000,0,1004,6,1000,2,4.000000,6.000000,0.000000,2.000000
13450,2026-07-29T17:09:31.519+08:00,271,0.542000,0,999,6,994,2,-1.000000,6.000000,-6.000000,2.000000
13451,2026-07-29T17:09:31.519+08:00,272,0.544000,0,994,6,994,2,-6.000000,6.000000,-6.000000,2.000000
13452,2026-07-29T17:09:31.519+08:00,273,0.546000,0,996,6,1000,2,-4.000000,6.000000,0.000000,2.000000
13453,2026-07-29T17:09:31.519+08:00,274,0.548000,0,1002,6,1005,2,2.000000,6.000000,5.000000,2.000000
13454,2026-07-29T17:09:31.519+08:00,275,0.550000,0,1003,6,1002,2,3.000000,6.000000,2.000000,2.000000
13455,2026-07-29T17:09:31.519+08:00,276,0.552000,0,999,6,997,2,-1.000000,6.000000,-3.000000,2.000000
13456,2026-07-29T17:09:31.519+08:00,277,0.554000,0,997,6,996,2,-3.000000,6.000000,-4.000000,2.000000
13457,2026-07-29T17:09:31.519+08:00,278,0.556000,0,999,6,1000,2,-1.000000,6.000000,0.000000,2.000000
13458,2026-07-29T17:09:31.519+08:00,279,0.558000,0,1002,6,1002,2,2.000000,6.000000,2.000000,2.000000
13459,2026-07-29T17:09:31.519+08:00,280,0.560000,0,1002,6,1000,2,2.000000,6.000000,0.000000,2.000000
13460,2026-07-29T17:09:31.519+08:00,281,0.562000,0,998,6,999,2,-2.000000,6.000000,-1.000000,2.000000
13461,2026-07-29T17:09:31.519+08:00,282,0.564000,0,1001,6,1002,2,1.000000,6.000000,2.000000,2.000000
13462,2026-07-29T17:09:31.519+08:00,283,0.566000,0,996,6,1000,2,-4.000000,6.000000,0.000000,2.000000
13463,2026-07-29T17:09:31.519+08:00,284,0.568000,0,997,4,996,2,-3.000000,4.000000,-4.000000,2.000000
13464,2026-07-29T17:09:31.519+08:00,285,0.570000,0,1004,4,997,2,4.000000,4.000000,-3.000000,2.000000
13465,2026-07-29T17:09:31.519+08:00,286,0.572000,0,1006,4,1002,2,6.000000,4.000000,2.000000,2.000000
13466,2026-07-29T17:09:31.519+08:00,287,0.574000,0,999,4,1004,2,-1.000000,4.000000,4.000000,2.000000
13467,2026-07-29T17:09:31.519+08:00,288,0.576000,0,992,4,1000,2,-8.000000,4.000000,0.000000,2.000000
13468,2026-07-29T17:09:31.519+08:00,289,0.578000,0,994,4,996,2,-6.000000,4.000000,-4.000000,2.000000
13469,2026-07-29T17:09:31.519+08:00,290,0.580000,0,1001,4,997,2,1.000000,4.000000,-3.000000,2.000000
13470,2026-07-29T17:09:31.519+08:00,291,0.582000,0,1004,4,1001,2,4.000000,4.000000,1.000000,2.000000
13471,2026-07-29T17:09:31.519+08:00,292,0.584000,0,1002,4,1000,2,2.000000,4.000000,0.000000,2.000000
13472,2026-07-29T17:09:31.519+08:00,293,0.586000,0,999,4,998,2,-1.000000,4.000000,-2.000000,2.000000
13473,2026-07-29T17:09:31.519+08:00,294,0.588000,0,998,6,999,2,-2.000000,6.000000,-1.000000,2.000000
13474,2026-07-29T17:09:31.521+08:00,295,0.590000,0,999,4,1003,2,-1.000000,4.000000,3.000000,2.000000
13475,2026-07-29T17:09:31.521+08:00,296,0.592000,0,999,4,1003,2,-1.000000,4.000000,3.000000,2.000000
13476,2026-07-29T17:09:31.521+08:00,297,0.594000,0,1000,4,998,2,0.000000,4.000000,-2.000000,2.000000
13477,2026-07-29T17:09:31.521+08:00,298,0.596000,0,999,4,993,2,-1.000000,4.000000,-7.000000,2.000000
13478,2026-07-29T17:09:31.522+08:00,299,0.598000,0,999,4,996,2,-1.000000,4.000000,-4.000000,2.000000
13479,2026-07-29T17:09:31.554+08:00,300,0.600000,0,997,4,997,2,-3.000000,4.000000,-3.000000,2.000000
13480,2026-07-29T17:09:31.576+08:00,301,0.602000,0,998,4,995,2,-2.000000,4.000000,-5.000000,2.000000
13481,2026-07-29T17:09:31.576+08:00,302,0.604000,0,1002,4,997,2,2.000000,4.000000,-3.000000,2.000000
13482,2026-07-29T17:09:31.576+08:00,303,0.606000,0,1005,4,1000,2,5.000000,4.000000,0.000000,2.000000
13483,2026-07-29T17:09:31.576+08:00,304,0.608000,0,1002,4,1002,2,2.000000,4.000000,2.000000,2.000000
13484,2026-07-29T17:09:31.576+08:00,305,0.610000,0,996,4,1002,2,-4.000000,4.000000,2.000000,2.000000
13485,2026-07-29T17:09:31.576+08:00,306,0.612000,0,993,6,1002,2,-7.000000,6.000000,2.000000,2.000000
13486,2026-07-29T17:09:31.576+08:00,307,0.614000,0,997,6,999,2,-3.000000,6.000000,-1.000000,2.000000
13487,2026-07-29T17:09:31.576+08:00,308,0.616000,0,1003,6,996,2,3.000000,6.000000,-4.000000,2.000000
13488,2026-07-29T17:09:31.576+08:00,309,0.618000,0,1003,6,995,2,3.000000,6.000000,-5.000000,2.000000
13489,2026-07-29T17:09:31.576+08:00,310,0.620000,0,999,4,999,2,-1.000000,4.000000,-1.000000,2.000000
13490,2026-07-29T17:09:31.576+08:00,311,0.622000,0,998,4,1003,2,-2.000000,4.000000,3.000000,2.000000
13491,2026-07-29T17:09:31.576+08:00,312,0.624000,0,1001,4,1003,2,1.000000,4.000000,3.000000,2.000000
13492,2026-07-29T17:09:31.576+08:00,313,0.626000,0,1003,4,1000,2,3.000000,4.000000,0.000000,2.000000
13493,2026-07-29T17:09:31.576+08:00,314,0.628000,0,999,4,998,2,-1.000000,4.000000,-2.000000,2.000000
13494,2026-07-29T17:09:31.576+08:00,315,0.630000,0,993,4,997,2,-7.000000,4.000000,-3.000000,2.000000
13495,2026-07-29T17:09:31.576+08:00,316,0.632000,0,995,4,998,2,-5.000000,4.000000,-2.000000,2.000000
13496,2026-07-29T17:09:31.576+08:00,317,0.634000,0,1003,4,999,2,3.000000,4.000000,-1.000000,2.000000
13497,2026-07-29T17:09:31.596+08:00,318,0.636000,0,1006,4,1000,2,6.000000,4.000000,0.000000,2.000000
13498,2026-07-29T17:09:31.631+08:00,319,0.638000,0,1000,4,1002,2,0.000000,4.000000,2.000000,2.000000
13499,2026-07-29T17:09:31.631+08:00,320,0.640000,0,993,4,1002,2,-7.000000,4.000000,2.000000,2.000000
13500,2026-07-29T17:09:31.631+08:00,321,0.642000,0,996,4,1000,2,-4.000000,4.000000,0.000000,2.000000
13501,2026-07-29T17:09:31.646+08:00,322,0.644000,0,1004,4,997,2,4.000000,4.000000,-3.000000,2.000000
13502,2026-07-29T17:09:31.646+08:00,323,0.646000,0,1007,4,995,2,7.000000,4.000000,-5.000000,2.000000
13503,2026-07-29T17:09:31.646+08:00,324,0.648000,0,1000,4,998,2,0.000000,4.000000,-2.000000,2.000000
13504,2026-07-29T17:09:31.646+08:00,325,0.650000,0,992,4,1002,2,-8.000000,4.000000,2.000000,2.000000
13505,2026-07-29T17:09:31.646+08:00,326,0.652000,0,993,4,1003,2,-7.000000,4.000000,3.000000,2.000000
13506,2026-07-29T17:09:31.646+08:00,327,0.654000,0,1003,4,1000,2,3.000000,4.000000,0.000000,2.000000
13507,2026-07-29T17:09:31.646+08:00,328,0.656000,0,1008,4,997,2,8.000000,4.000000,-3.000000,2.000000
13508,2026-07-29T17:09:31.646+08:00,329,0.658000,0,1001,4,998,2,1.000000,4.000000,-2.000000,2.000000
13509,2026-07-29T17:09:31.646+08:00,330,0.660000,0,990,4,999,2,-10.000000,4.000000,-1.000000,2.000000
13510,2026-07-29T17:09:31.646+08:00,331,0.662000,0,990,4,999,2,-10.000000,4.000000,-1.000000,2.000000
13511,2026-07-29T17:09:31.646+08:00,332,0.664000,0,1004,4,999,2,4.000000,4.000000,-1.000000,2.000000
13512,2026-07-29T17:09:31.646+08:00,333,0.666000,0,1015,4,1001,2,15.000000,4.000000,1.000000,2.000000
13513,2026-07-29T17:09:31.646+08:00,334,0.668000,0,1010,6,999,2,10.000000,6.000000,-1.000000,2.000000
13514,2026-07-29T17:09:31.646+08:00,335,0.670000,0,1010,6,999,2,10.000000,6.000000,-1.000000,2.000000
13515,2026-07-29T17:09:31.646+08:00,336,0.672000,0,999,6,1000,2,-1.000000,6.000000,0.000000,2.000000
13516,2026-07-29T17:09:31.646+08:00,337,0.674000,0,994,6,1001,2,-6.000000,6.000000,1.000000,2.000000
13517,2026-07-29T17:09:31.662+08:00,338,0.676000,0,998,6,1001,2,-2.000000,6.000000,1.000000,2.000000
13518,2026-07-29T17:09:31.662+08:00,339,0.678000,0,1003,6,998,2,3.000000,6.000000,-2.000000,2.000000
13519,2026-07-29T17:09:31.662+08:00,340,0.680000,0,1000,6,998,2,0.000000,6.000000,-2.000000,2.000000
13520,2026-07-29T17:09:31.662+08:00,341,0.682000,0,993,6,1000,2,-7.000000,6.000000,0.000000,2.000000
13521,2026-07-29T17:09:31.662+08:00,342,0.684000,0,995,6,1001,2,-5.000000,6.000000,1.000000,2.000000
13522,2026-07-29T17:09:31.696+08:00,343,0.686000,0,1005,6,1000,2,5.000000,6.000000,0.000000,2.000000
13523,2026-07-29T17:09:31.696+08:00,344,0.688000,0,1010,6,998,2,10.000000,6.000000,-2.000000,2.000000
13524,2026-07-29T17:09:31.696+08:00,345,0.690000,0,1001,6,999,2,1.000000,6.000000,-1.000000,2.000000
13525,2026-07-29T17:09:31.696+08:00,346,0.692000,0,988,6,1001,2,-12.000000,6.000000,1.000000,2.000000
13526,2026-07-29T17:09:31.696+08:00,347,0.694000,0,989,6,1001,2,-11.000000,6.000000,1.000000,2.000000
13527,2026-07-29T17:09:31.696+08:00,348,0.696000,0,1003,6,1000,2,3.000000,6.000000,0.000000,2.000000
13528,2026-07-29T17:09:31.696+08:00,349,0.698000,0,1013,6,998,2,13.000000,6.000000,-2.000000,2.000000
13529,2026-07-29T17:09:31.696+08:00,350,0.700000,0,1007,6,998,2,7.000000,6.000000,-2.000000,2.000000
13530,2026-07-29T17:09:31.696+08:00,351,0.702000,0,992,6,999,2,-8.000000,6.000000,-1.000000,2.000000
13531,2026-07-29T17:09:31.696+08:00,352,0.704000,0,987,6,1000,2,-13.000000,6.000000,0.000000,2.000000
13532,2026-07-29T17:09:31.703+08:00,353,0.706000,0,996,6,1000,2,-4.000000,6.000000,0.000000,2.000000
13533,2026-07-29T17:09:31.703+08:00,354,0.708000,0,1007,6,1001,2,7.000000,6.000000,1.000000,2.000000
13534,2026-07-29T17:09:31.703+08:00,355,0.710000,0,1006,6,1001,2,6.000000,6.000000,1.000000,2.000000
13535,2026-07-29T17:09:31.703+08:00,356,0.712000,0,997,6,1000,2,-3.000000,6.000000,0.000000,2.000000
13536,2026-07-29T17:09:31.703+08:00,357,0.714000,0,993,6,997,2,-7.000000,6.000000,-3.000000,2.000000
13537,2026-07-29T17:09:31.703+08:00,358,0.716000,0,1000,6,996,2,0.000000,6.000000,-4.000000,2.000000
13538,2026-07-29T17:09:31.703+08:00,359,0.718000,0,1008,6,998,2,8.000000,6.000000,-2.000000,2.000000
13539,2026-07-29T17:09:31.711+08:00,360,0.720000,0,1005,6,1003,2,5.000000,6.000000,3.000000,2.000000
13540,2026-07-29T17:09:31.711+08:00,361,0.722000,0,993,6,1004,2,-7.000000,6.000000,4.000000,2.000000
13541,2026-07-29T17:09:31.711+08:00,362,0.724000,0,988,6,1000,2,-12.000000,6.000000,0.000000,2.000000
13542,2026-07-29T17:09:31.711+08:00,363,0.726000,0,997,6,996,2,-3.000000,6.000000,-4.000000,2.000000
13543,2026-07-29T17:09:31.711+08:00,364,0.728000,0,1009,6,996,2,9.000000,6.000000,-4.000000,2.000000
13544,2026-07-29T17:09:31.711+08:00,365,0.730000,0,1003,6,999,2,3.000000,6.000000,-1.000000,2.000000
13545,2026-07-29T17:09:31.725+08:00,366,0.732000,0,1001,6,1000,2,1.000000,6.000000,0.000000,2.000000
13546,2026-07-29T17:09:31.725+08:00,367,0.734000,0,1007,6,1002,2,7.000000,6.000000,2.000000,2.000000
13547,2026-07-29T17:09:31.725+08:00,368,0.736000,0,1003,6,1002,2,3.000000,6.000000,2.000000,2.000000
13548,2026-07-29T17:09:31.743+08:00,369,0.738000,0,993,6,1000,2,-7.000000,6.000000,0.000000,2.000000
13549,2026-07-29T17:09:31.743+08:00,370,0.740000,0,992,6,998,2,-8.000000,6.000000,-2.000000,2.000000
13550,2026-07-29T17:09:31.743+08:00,371,0.742000,0,1001,6,998,2,1.000000,6.000000,-2.000000,2.000000
13551,2026-07-29T17:09:31.743+08:00,372,0.744000,0,1009,8,999,2,9.000000,8.000000,-1.000000,2.000000
13552,2026-07-29T17:09:31.743+08:00,373,0.746000,0,1006,8,999,2,6.000000,8.000000,-1.000000,2.000000
13553,2026-07-29T17:09:31.743+08:00,374,0.748000,0,995,8,1000,2,-5.000000,8.000000,0.000000,2.000000
13554,2026-07-29T17:09:31.743+08:00,375,0.750000,0,990,8,1001,2,-10.000000,8.000000,1.000000,2.000000
13555,2026-07-29T17:09:31.743+08:00,376,0.752000,0,997,8,1002,2,-3.000000,8.000000,2.000000,2.000000
13556,2026-07-29T17:09:31.743+08:00,377,0.754000,0,1003,8,999,2,3.000000,8.000000,-1.000000,2.000000
13557,2026-07-29T17:09:31.743+08:00,378,0.756000,0,1003,8,996,2,3.000000,8.000000,-4.000000,2.000000
13558,2026-07-29T17:09:31.743+08:00,379,0.758000,0,998,8,997,2,-2.000000,8.000000,-3.000000,2.000000
13559,2026-07-29T17:09:31.743+08:00,380,0.760000,0,999,8,1000,2,-1.000000,8.000000,0.000000,2.000000
13560,2026-07-29T17:09:31.743+08:00,381,0.762000,0,1004,8,1002,2,4.000000,8.000000,2.000000,2.000000
13561,2026-07-29T17:09:31.743+08:00,382,0.764000,0,1004,8,1001,2,4.000000,8.000000,1.000000,2.000000
13562,2026-07-29T17:09:31.743+08:00,383,0.766000,0,997,8,998,2,-3.000000,8.000000,-2.000000,2.000000
13563,2026-07-29T17:09:31.743+08:00,384,0.768000,0,991,8,999,2,-9.000000,8.000000,-1.000000,2.000000
13564,2026-07-29T17:09:31.743+08:00,385,0.770000,0,994,8,1001,2,-6.000000,8.000000,1.000000,2.000000
13565,2026-07-29T17:09:31.743+08:00,386,0.772000,0,1003,8,1001,2,3.000000,8.000000,1.000000,2.000000
13566,2026-07-29T17:09:31.743+08:00,387,0.774000,0,1008,8,998,2,8.000000,8.000000,-2.000000,2.000000
13567,2026-07-29T17:09:31.769+08:00,388,0.776000,0,1001,8,996,2,1.000000,8.000000,-4.000000,2.000000
13568,2026-07-29T17:09:31.769+08:00,389,0.778000,0,995,8,997,2,-5.000000,8.000000,-3.000000,2.000000
13569,2026-07-29T17:09:31.769+08:00,390,0.780000,0,996,8,1000,2,-4.000000,8.000000,0.000000,2.000000
13570,2026-07-29T17:09:31.769+08:00,391,0.782000,0,1001,8,1002,2,1.000000,8.000000,2.000000,2.000000
13571,2026-07-29T17:09:31.769+08:00,392,0.784000,0,1003,8,1002,2,3.000000,8.000000,2.000000,2.000000
13572,2026-07-29T17:09:31.769+08:00,393,0.786000,0,998,8,999,2,-2.000000,8.000000,-1.000000,2.000000
13573,2026-07-29T17:09:31.769+08:00,394,0.788000,0,994,8,997,2,-6.000000,8.000000,-3.000000,2.000000
13574,2026-07-29T17:09:31.769+08:00,395,0.790000,0,998,8,997,2,-2.000000,8.000000,-3.000000,2.000000
13575,2026-07-29T17:09:31.769+08:00,396,0.792000,0,1006,8,1000,2,6.000000,8.000000,0.000000,2.000000
13576,2026-07-29T17:09:31.775+08:00,397,0.794000,0,1008,8,1002,2,8.000000,8.000000,2.000000,2.000000
13577,2026-07-29T17:09:31.787+08:00,398,0.796000,0,999,8,1000,2,-1.000000,8.000000,0.000000,2.000000
13578,2026-07-29T17:09:31.787+08:00,399,0.798000,0,989,8,997,2,-11.000000,8.000000,-3.000000,2.000000
13579,2026-07-29T17:09:31.787+08:00,400,0.800000,0,991,8,997,2,-9.000000,8.000000,-3.000000,2.000000
13580,2026-07-29T17:09:31.787+08:00,401,0.802000,0,1002,8,1001,2,2.000000,8.000000,1.000000,2.000000
13581,2026-07-29T17:09:31.787+08:00,402,0.804000,0,1009,8,1004,2,9.000000,8.000000,4.000000,2.000000
13582,2026-07-29T17:09:31.787+08:00,403,0.806000,0,1004,8,1001,2,4.000000,8.000000,1.000000,2.000000
13583,2026-07-29T17:09:31.787+08:00,404,0.808000,0,994,8,996,2,-6.000000,8.000000,-4.000000,2.000000
13584,2026-07-29T17:09:31.787+08:00,405,0.810000,0,991,8,995,2,-9.000000,8.000000,-5.000000,2.000000
13585,2026-07-29T17:09:31.787+08:00,406,0.812000,0,1000,8,999,2,0.000000,8.000000,-1.000000,2.000000
13586,2026-07-29T17:09:31.820+08:00,407,0.814000,0,1009,8,1003,2,9.000000,8.000000,3.000000,2.000000
13587,2026-07-29T17:09:31.824+08:00,408,0.816000,0,1007,8,1003,2,7.000000,8.000000,3.000000,2.000000
13588,2026-07-29T17:09:31.824+08:00,409,0.818000,0,997,8,1001,2,-3.000000,8.000000,1.000000,2.000000
13589,2026-07-29T17:09:31.824+08:00,410,0.820000,0,989,8,997,2,-11.000000,8.000000,-3.000000,2.000000
13590,2026-07-29T17:09:31.827+08:00,411,0.822000,0,993,8,995,2,-7.000000,8.000000,-5.000000,2.000000
13591,2026-07-29T17:09:31.827+08:00,412,0.824000,0,1003,8,996,2,3.000000,8.000000,-4.000000,2.000000
13592,2026-07-29T17:09:31.827+08:00,413,0.826000,0,1007,8,1002,2,7.000000,8.000000,2.000000,2.000000
13593,2026-07-29T17:09:31.830+08:00,414,0.828000,0,1003,8,1006,2,3.000000,8.000000,6.000000,2.000000
13594,2026-07-29T17:09:31.830+08:00,415,0.830000,0,999,8,1003,2,-1.000000,8.000000,3.000000,2.000000
13595,2026-07-29T17:09:31.830+08:00,416,0.832000,0,998,8,996,2,-2.000000,8.000000,-4.000000,2.000000
13596,2026-07-29T17:09:31.833+08:00,417,0.834000,0,998,8,993,2,-2.000000,8.000000,-7.000000,2.000000
13597,2026-07-29T17:09:31.833+08:00,418,0.836000,0,997,8,997,2,-3.000000,8.000000,-3.000000,2.000000
13598,2026-07-29T17:09:31.833+08:00,419,0.838000,0,997,8,1003,2,-3.000000,8.000000,3.000000,2.000000
13599,2026-07-29T17:09:31.838+08:00,420,0.840000,0,1001,8,1004,2,1.000000,8.000000,4.000000,2.000000
13600,2026-07-29T17:09:31.838+08:00,421,0.842000,0,1004,8,1000,2,4.000000,8.000000,0.000000,2.000000
13601,2026-07-29T17:09:31.838+08:00,422,0.844000,0,1002,8,997,2,2.000000,8.000000,-3.000000,2.000000
13602,2026-07-29T17:09:31.838+08:00,423,0.846000,0,1006,8,999,2,6.000000,8.000000,-1.000000,2.000000
13603,2026-07-29T17:09:31.845+08:00,424,0.848000,0,1008,8,1002,2,8.000000,8.000000,2.000000,2.000000
13604,2026-07-29T17:09:31.845+08:00,425,0.850000,0,1000,8,1004,2,0.000000,8.000000,4.000000,2.000000
13605,2026-07-29T17:09:31.845+08:00,426,0.852000,0,993,8,999,2,-7.000000,8.000000,-1.000000,2.000000
13606,2026-07-29T17:09:31.845+08:00,427,0.854000,0,994,8,994,2,-6.000000,8.000000,-6.000000,2.000000
13607,2026-07-29T17:09:31.845+08:00,428,0.856000,0,1001,8,995,2,1.000000,8.000000,-5.000000,2.000000
13608,2026-07-29T17:09:31.845+08:00,429,0.858000,0,1003,8,1003,2,3.000000,8.000000,3.000000,2.000000
13609,2026-07-29T17:09:31.845+08:00,430,0.860000,0,999,8,1007,2,-1.000000,8.000000,7.000000,2.000000
13610,2026-07-29T17:09:31.845+08:00,431,0.862000,0,996,8,1001,2,-4.000000,8.000000,1.000000,2.000000
13611,2026-07-29T17:09:31.856+08:00,432,0.864000,0,1000,8,993,2,0.000000,8.000000,-7.000000,2.000000
13612,2026-07-29T17:09:31.856+08:00,433,0.866000,0,1006,8,994,2,6.000000,8.000000,-6.000000,2.000000
13613,2026-07-29T17:09:31.856+08:00,434,0.868000,0,1005,8,1001,2,5.000000,8.000000,1.000000,2.000000
13614,2026-07-29T17:09:31.856+08:00,435,0.870000,0,998,8,1006,2,-2.000000,8.000000,6.000000,2.000000
13615,2026-07-29T17:09:31.865+08:00,436,0.872000,0,992,8,1002,2,-8.000000,8.000000,2.000000,2.000000
13616,2026-07-29T17:09:31.865+08:00,437,0.874000,0,994,8,997,2,-6.000000,8.000000,-3.000000,2.000000
13617,2026-07-29T17:09:31.865+08:00,438,0.876000,0,1000,8,995,2,0.000000,8.000000,-5.000000,2.000000
13618,2026-07-29T17:09:31.865+08:00,439,0.878000,0,1004,8,998,2,4.000000,8.000000,-2.000000,2.000000
13619,2026-07-29T17:09:31.865+08:00,440,0.880000,0,1004,8,1002,2,4.000000,8.000000,2.000000,2.000000
13620,2026-07-29T17:09:31.865+08:00,441,0.882000,0,1000,8,1002,2,0.000000,8.000000,2.000000,2.000000
13621,2026-07-29T17:09:31.865+08:00,442,0.884000,0,998,8,1000,2,-2.000000,8.000000,0.000000,2.000000
13622,2026-07-29T17:09:31.865+08:00,443,0.886000,0,998,8,998,2,-2.000000,8.000000,-2.000000,2.000000
13623,2026-07-29T17:09:31.865+08:00,444,0.888000,0,999,8,997,2,-1.000000,8.000000,-3.000000,2.000000
13624,2026-07-29T17:09:31.876+08:00,445,0.890000,0,999,8,999,2,-1.000000,8.000000,-1.000000,2.000000
13625,2026-07-29T17:09:31.876+08:00,446,0.892000,0,1000,8,1001,2,0.000000,8.000000,1.000000,2.000000
13626,2026-07-29T17:09:31.876+08:00,447,0.894000,0,1000,8,1001,2,0.000000,8.000000,1.000000,2.000000
13627,2026-07-29T17:09:31.876+08:00,448,0.896000,0,999,8,999,2,-1.000000,8.000000,-1.000000,2.000000
13628,2026-07-29T17:09:31.876+08:00,449,0.898000,0,998,8,997,2,-2.000000,8.000000,-3.000000,2.000000
13629,2026-07-29T17:09:31.876+08:00,450,0.900000,0,1002,8,1001,2,2.000000,8.000000,1.000000,2.000000
13630,2026-07-29T17:09:31.917+08:00,451,0.902000,0,1001,8,998,2,1.000000,8.000000,-2.000000,2.000000
13631,2026-07-29T17:09:31.917+08:00,452,0.904000,0,998,8,996,2,-2.000000,8.000000,-4.000000,2.000000
13632,2026-07-29T17:09:31.917+08:00,453,0.906000,0,997,8,998,2,-3.000000,8.000000,-2.000000,2.000000
13633,2026-07-29T17:09:31.917+08:00,454,0.908000,0,998,6,1002,2,-2.000000,6.000000,2.000000,2.000000
13634,2026-07-29T17:09:31.923+08:00,455,0.910000,0,1000,6,1003,2,0.000000,6.000000,3.000000,2.000000
13635,2026-07-29T17:09:31.923+08:00,456,0.912000,0,1002,6,1000,2,2.000000,6.000000,0.000000,2.000000
13636,2026-07-29T17:09:31.923+08:00,457,0.914000,0,1001,6,997,2,1.000000,6.000000,-3.000000,2.000000
13637,2026-07-29T17:09:31.923+08:00,458,0.916000,0,998,6,998,2,-2.000000,6.000000,-2.000000,2.000000
13638,2026-07-29T17:09:31.923+08:00,459,0.918000,0,996,6,1000,2,-4.000000,6.000000,0.000000,2.000000
13639,2026-07-29T17:09:31.971+08:00,460,0.920000,0,998,6,1000,2,-2.000000,6.000000,0.000000,2.000000
13640,2026-07-29T17:09:31.974+08:00,461,0.922000,0,1003,6,999,2,3.000000,6.000000,-1.000000,2.000000
13641,2026-07-29T17:09:31.974+08:00,462,0.924000,0,1006,6,999,2,6.000000,6.000000,-1.000000,2.000000
13642,2026-07-29T17:09:31.974+08:00,463,0.926000,0,1002,6,1001,2,2.000000,6.000000,1.000000,2.000000
13643,2026-07-29T17:09:31.979+08:00,464,0.928000,0,994,6,1001,2,-6.000000,6.000000,1.000000,2.000000
13644,2026-07-29T17:09:31.979+08:00,465,0.930000,0,990,6,999,2,-10.000000,6.000000,-1.000000,2.000000
13645,2026-07-29T17:09:31.979+08:00,466,0.932000,0,996,6,996,2,-4.000000,6.000000,-4.000000,2.000000
13646,2026-07-29T17:09:31.987+08:00,467,0.934000,0,1005,6,998,2,5.000000,6.000000,-2.000000,2.000000
13647,2026-07-29T17:09:31.987+08:00,468,0.936000,0,1007,6,1002,2,7.000000,6.000000,2.000000,2.000000
13648,2026-07-29T17:09:31.987+08:00,469,0.938000,0,1002,6,1003,2,2.000000,6.000000,3.000000,2.000000
13649,2026-07-29T17:09:31.992+08:00,470,0.940000,0,997,6,998,2,-3.000000,6.000000,-2.000000,2.000000
13650,2026-07-29T17:09:31.992+08:00,471,0.942000,0,998,6,995,2,-2.000000,6.000000,-5.000000,2.000000
13651,2026-07-29T17:09:31.992+08:00,472,0.944000,0,999,6,998,2,-1.000000,6.000000,-2.000000,2.000000
13652,2026-07-29T17:09:31.992+08:00,473,0.946000,0,998,6,1004,2,-2.000000,6.000000,4.000000,2.000000
13653,2026-07-29T17:09:31.992+08:00,474,0.948000,0,998,6,1004,2,-2.000000,6.000000,4.000000,2.000000
13654,2026-07-29T17:09:31.992+08:00,475,0.950000,0,1000,6,998,2,0.000000,6.000000,-2.000000,2.000000
13655,2026-07-29T17:09:31.999+08:00,476,0.952000,0,1002,6,995,2,2.000000,6.000000,-5.000000,2.000000
13656,2026-07-29T17:09:31.999+08:00,477,0.954000,0,1000,6,997,2,0.000000,6.000000,-3.000000,2.000000
13657,2026-07-29T17:09:31.999+08:00,478,0.956000,0,996,6,1001,2,-4.000000,6.000000,1.000000,2.000000
13658,2026-07-29T17:09:31.999+08:00,479,0.958000,0,997,6,1002,2,-3.000000,6.000000,2.000000,2.000000
13659,2026-07-29T17:09:31.999+08:00,480,0.960000,0,1003,6,1000,2,3.000000,6.000000,0.000000,2.000000
13660,2026-07-29T17:09:31.999+08:00,481,0.962000,0,1006,6,999,2,6.000000,6.000000,-1.000000,2.000000
13661,2026-07-29T17:09:32.006+08:00,482,0.964000,0,1001,6,1000,2,1.000000,6.000000,0.000000,2.000000
13662,2026-07-29T17:09:32.006+08:00,483,0.966000,0,993,6,1000,2,-7.000000,6.000000,0.000000,2.000000
13663,2026-07-29T17:09:32.006+08:00,484,0.968000,0,991,6,997,2,-9.000000,6.000000,-3.000000,2.000000
13664,2026-07-29T17:09:32.006+08:00,485,0.970000,0,999,6,995,2,-1.000000,6.000000,-5.000000,2.000000
13665,2026-07-29T17:09:32.006+08:00,486,0.972000,0,1007,6,1000,2,7.000000,6.000000,0.000000,2.000000
13666,2026-07-29T17:09:32.006+08:00,487,0.974000,0,1005,6,1005,2,5.000000,6.000000,5.000000,2.000000
13667,2026-07-29T17:09:32.006+08:00,488,0.976000,0,997,6,1005,2,-3.000000,6.000000,5.000000,2.000000
13668,2026-07-29T17:09:32.006+08:00,489,0.978000,0,993,6,998,2,-7.000000,6.000000,-2.000000,2.000000
13669,2026-07-29T17:09:32.036+08:00,490,0.980000,0,999,6,1005,2,-1.000000,6.000000,5.000000,2.000000
13670,2026-07-29T17:09:32.037+08:00,491,0.982000,0,995,6,1001,2,-5.000000,6.000000,1.000000,2.000000
13671,2026-07-29T17:09:32.037+08:00,492,0.984000,0,996,6,997,2,-4.000000,6.000000,-3.000000,2.000000
13672,2026-07-29T17:09:32.037+08:00,493,0.986000,0,1001,6,996,2,1.000000,6.000000,-4.000000,2.000000
13673,2026-07-29T17:09:32.037+08:00,494,0.988000,0,1002,6,999,2,2.000000,6.000000,-1.000000,2.000000
13674,2026-07-29T17:09:32.037+08:00,495,0.990000,0,999,6,1001,2,-1.000000,6.000000,1.000000,2.000000
13675,2026-07-29T17:09:32.037+08:00,496,0.992000,0,998,6,1001,2,-2.000000,6.000000,1.000000,2.000000
13676,2026-07-29T17:09:32.040+08:00,497,0.994000,0,1001,6,1000,2,1.000000,6.000000,0.000000,2.000000
13677,2026-07-29T17:09:32.040+08:00,498,0.996000,0,1004,6,999,2,4.000000,6.000000,-1.000000,2.000000
13678,2026-07-29T17:09:32.040+08:00,499,0.998000,0,1000,6,999,2,0.000000,6.000000,-1.000000,2.000000
13679,2026-07-29T17:09:32.043+08:00,500,1.000000,0,995,6,999,2,-5.000000,6.000000,-1.000000,2.000000
13680,2026-07-29T17:09:32.043+08:00,501,1.002000,0,995,4,1000,2,-5.000000,4.000000,0.000000,2.000000
13681,2026-07-29T17:09:32.043+08:00,502,1.004000,0,1002,4,1000,2,2.000000,4.000000,0.000000,2.000000
13682,2026-07-29T17:09:32.045+08:00,503,1.006000,0,1005,4,1000,2,5.000000,4.000000,0.000000,2.000000
13683,2026-07-29T17:09:32.045+08:00,504,1.008000,0,1000,4,999,2,0.000000,4.000000,-1.000000,2.000000
13684,2026-07-29T17:09:32.045+08:00,505,1.010000,0,993,4,998,2,-7.000000,4.000000,-2.000000,2.000000
13685,2026-07-29T17:09:32.045+08:00,506,1.012000,0,996,4,999,2,-4.000000,4.000000,-1.000000,2.000000
13686,2026-07-29T17:09:32.050+08:00,507,1.014000,0,1006,6,1000,2,6.000000,6.000000,0.000000,2.000000
13687,2026-07-29T17:09:32.050+08:00,508,1.016000,0,1009,6,1001,2,9.000000,6.000000,1.000000,2.000000
13688,2026-07-29T17:09:32.050+08:00,509,1.018000,0,1000,6,1000,2,0.000000,6.000000,0.000000,2.000000
13689,2026-07-29T17:09:32.052+08:00,510,1.020000,0,988,6,999,2,-12.000000,6.000000,-1.000000,2.000000
13690,2026-07-29T17:09:32.052+08:00,511,1.022000,0,991,6,998,2,-9.000000,6.000000,-2.000000,2.000000
13691,2026-07-29T17:09:32.052+08:00,512,1.024000,0,1003,6,998,2,3.000000,6.000000,-2.000000,2.000000
13692,2026-07-29T17:09:32.060+08:00,513,1.026000,0,1010,6,1000,2,10.000000,6.000000,0.000000,2.000000
13693,2026-07-29T17:09:32.060+08:00,514,1.028000,0,1003,6,1001,2,3.000000,6.000000,1.000000,2.000000
13694,2026-07-29T17:09:32.060+08:00,515,1.030000,0,992,6,1000,2,-8.000000,6.000000,0.000000,2.000000
13695,2026-07-29T17:09:32.060+08:00,516,1.032000,0,993,6,998,2,-7.000000,6.000000,-2.000000,2.000000
13696,2026-07-29T17:09:32.060+08:00,517,1.034000,0,1003,6,999,2,3.000000,6.000000,-1.000000,2.000000
13697,2026-07-29T17:09:32.060+08:00,518,1.036000,0,995,6,998,2,-5.000000,6.000000,-2.000000,2.000000
13698,2026-07-29T17:09:32.064+08:00,519,1.038000,0,994,6,1003,2,-6.000000,6.000000,3.000000,2.000000
13699,2026-07-29T17:09:32.064+08:00,520,1.040000,0,998,6,1004,2,-2.000000,6.000000,4.000000,2.000000
13700,2026-07-29T17:09:32.064+08:00,521,1.042000,0,1002,6,999,2,2.000000,6.000000,-1.000000,2.000000
13701,2026-07-29T17:09:32.064+08:00,522,1.044000,0,1003,6,995,2,3.000000,6.000000,-5.000000,2.000000
13702,2026-07-29T17:09:32.070+08:00,523,1.046000,0,1001,6,996,2,1.000000,6.000000,-4.000000,2.000000
13703,2026-07-29T17:09:32.070+08:00,524,1.048000,0,1000,6,1001,2,0.000000,6.000000,1.000000,2.000000
13704,2026-07-29T17:09:32.070+08:00,525,1.050000,0,1000,6,1004,2,0.000000,6.000000,4.000000,2.000000
13705,2026-07-29T17:09:32.070+08:00,526,1.052000,0,1000,6,1002,2,0.000000,6.000000,2.000000,2.000000
13706,2026-07-29T17:09:32.070+08:00,527,1.054000,0,998,6,998,2,-2.000000,6.000000,-2.000000,2.000000
13707,2026-07-29T17:09:32.070+08:00,528,1.056000,0,997,6,997,2,-3.000000,6.000000,-3.000000,2.000000
13708,2026-07-29T17:09:32.079+08:00,529,1.058000,0,998,6,999,2,-2.000000,6.000000,-1.000000,2.000000
13709,2026-07-29T17:09:32.079+08:00,530,1.060000,0,1000,6,1000,2,0.000000,6.000000,0.000000,2.000000
13710,2026-07-29T17:09:32.079+08:00,531,1.062000,0,1000,6,999,2,0.000000,6.000000,-1.000000,2.000000
13711,2026-07-29T17:09:32.079+08:00,532,1.064000,0,1000,4,999,2,0.000000,4.000000,-1.000000,2.000000
13712,2026-07-29T17:09:32.079+08:00,533,1.066000,0,1001,4,1001,2,1.000000,4.000000,1.000000,2.000000
13713,2026-07-29T17:09:32.079+08:00,534,1.068000,0,1003,4,1002,2,3.000000,4.000000,2.000000,2.000000
13714,2026-07-29T17:09:32.079+08:00,535,1.070000,0,1002,4,1000,2,2.000000,4.000000,0.000000,2.000000
13715,2026-07-29T17:09:32.111+08:00,536,1.072000,0,1003,4,1003,2,3.000000,4.000000,3.000000,2.000000
13716,2026-07-29T17:09:32.123+08:00,537,1.074000,0,1008,4,1001,2,8.000000,4.000000,1.000000,2.000000
13717,2026-07-29T17:09:32.123+08:00,538,1.076000,0,1003,6,998,2,3.000000,6.000000,-2.000000,2.000000
13718,2026-07-29T17:09:32.125+08:00,539,1.078000,0,993,6,997,2,-7.000000,6.000000,-3.000000,2.000000
13719,2026-07-29T17:09:32.125+08:00,540,1.080000,0,990,6,1000,2,-10.000000,6.000000,0.000000,2.000000
13720,2026-07-29T17:09:32.125+08:00,541,1.082000,0,999,6,1002,2,-1.000000,6.000000,2.000000,2.000000
13721,2026-07-29T17:09:32.130+08:00,542,1.084000,0,1009,6,1001,2,9.000000,6.000000,1.000000,2.000000
13722,2026-07-29T17:09:32.130+08:00,543,1.086000,0,1008,6,999,2,8.000000,6.000000,-1.000000,2.000000
13723,2026-07-29T17:09:32.130+08:00,544,1.088000,0,998,6,997,2,-2.000000,6.000000,-3.000000,2.000000
13724,2026-07-29T17:09:32.138+08:00,545,1.090000,0,990,6,998,2,-10.000000,6.000000,-2.000000,2.000000
13725,2026-07-29T17:09:32.138+08:00,546,1.092000,0,994,6,1001,2,-6.000000,6.000000,1.000000,2.000000
13726,2026-07-29T17:09:32.153+08:00,547,1.094000,0,1002,6,1002,2,2.000000,6.000000,2.000000,2.000000
13727,2026-07-29T17:09:32.153+08:00,548,1.096000,0,1005,6,1000,2,5.000000,6.000000,0.000000,2.000000
13728,2026-07-29T17:09:32.153+08:00,549,1.098000,0,1001,6,997,2,1.000000,6.000000,-3.000000,2.000000
13729,2026-07-29T17:09:32.172+08:00,550,1.100000,0,996,6,997,2,-4.000000,6.000000,-3.000000,2.000000
13730,2026-07-29T17:09:32.195+08:00,551,1.102000,0,997,6,999,2,-3.000000,6.000000,-1.000000,2.000000
13731,2026-07-29T17:09:32.195+08:00,552,1.104000,0,1002,6,1001,2,2.000000,6.000000,1.000000,2.000000
13732,2026-07-29T17:09:32.195+08:00,553,1.106000,0,1004,6,1001,2,4.000000,6.000000,1.000000,2.000000
13733,2026-07-29T17:09:32.195+08:00,554,1.108000,0,1000,6,1000,2,0.000000,6.000000,0.000000,2.000000
13734,2026-07-29T17:09:32.195+08:00,555,1.110000,0,995,6,999,2,-5.000000,6.000000,-1.000000,2.000000
13735,2026-07-29T17:09:32.195+08:00,556,1.112000,0,995,6,1000,2,-5.000000,6.000000,0.000000,2.000000
13736,2026-07-29T17:09:32.195+08:00,557,1.114000,0,999,6,1000,2,-1.000000,6.000000,0.000000,2.000000
13737,2026-07-29T17:09:32.195+08:00,558,1.116000,0,1003,6,998,2,3.000000,6.000000,-2.000000,2.000000
13738,2026-07-29T17:09:32.195+08:00,559,1.118000,0,1002,6,997,2,2.000000,6.000000,-3.000000,2.000000
13739,2026-07-29T17:09:32.195+08:00,560,1.120000,0,998,6,1000,2,-2.000000,6.000000,0.000000,2.000000
13740,2026-07-29T17:09:32.195+08:00,561,1.122000,0,998,6,1003,2,-2.000000,6.000000,3.000000,2.000000
13741,2026-07-29T17:09:32.195+08:00,562,1.124000,0,1003,6,1001,2,3.000000,6.000000,1.000000,2.000000
13742,2026-07-29T17:09:32.195+08:00,563,1.126000,0,1004,6,998,2,4.000000,6.000000,-2.000000,2.000000
13743,2026-07-29T17:09:32.195+08:00,564,1.128000,0,997,6,997,2,-3.000000,6.000000,-3.000000,2.000000
13744,2026-07-29T17:09:32.195+08:00,565,1.130000,0,991,6,1000,2,-9.000000,6.000000,0.000000,2.000000
13745,2026-07-29T17:09:32.195+08:00,566,1.132000,0,995,6,1001,2,-5.000000,6.000000,1.000000,2.000000
13746,2026-07-29T17:09:32.198+08:00,567,1.134000,0,1004,6,999,2,4.000000,6.000000,-1.000000,2.000000
13747,2026-07-29T17:09:32.198+08:00,568,1.136000,0,1008,6,998,2,8.000000,6.000000,-2.000000,2.000000
13748,2026-07-29T17:09:32.198+08:00,569,1.138000,0,1001,6,1000,2,1.000000,6.000000,0.000000,2.000000
13749,2026-07-29T17:09:32.201+08:00,570,1.140000,0,993,6,1002,2,-7.000000,6.000000,2.000000,2.000000
13750,2026-07-29T17:09:32.201+08:00,571,1.142000,0,995,6,1002,2,-5.000000,6.000000,2.000000,2.000000
13751,2026-07-29T17:09:32.201+08:00,572,1.144000,0,1003,6,997,2,3.000000,6.000000,-3.000000,2.000000
13752,2026-07-29T17:09:32.204+08:00,573,1.146000,0,1006,6,995,2,6.000000,6.000000,-5.000000,2.000000
13753,2026-07-29T17:09:32.204+08:00,574,1.148000,0,999,6,998,2,-1.000000,6.000000,-2.000000,2.000000
13754,2026-07-29T17:09:32.204+08:00,575,1.150000,0,993,6,1003,2,-7.000000,6.000000,3.000000,2.000000
13755,2026-07-29T17:09:32.206+08:00,576,1.152000,0,993,6,999,2,-7.000000,6.000000,-1.000000,2.000000
13756,2026-07-29T17:09:32.206+08:00,577,1.154000,0,1001,6,1000,2,1.000000,6.000000,0.000000,2.000000
13757,2026-07-29T17:09:32.206+08:00,578,1.156000,0,1009,6,1000,2,9.000000,6.000000,0.000000,2.000000
13758,2026-07-29T17:09:32.229+08:00,579,1.158000,0,1004,6,1000,2,4.000000,6.000000,0.000000,2.000000
13759,2026-07-29T17:09:32.229+08:00,580,1.160000,0,993,6,1001,2,-7.000000,6.000000,1.000000,2.000000
13760,2026-07-29T17:09:32.229+08:00,581,1.162000,0,990,6,1000,2,-10.000000,6.000000,0.000000,2.000000
13761,2026-07-29T17:09:32.229+08:00,582,1.164000,0,999,6,998,2,-1.000000,6.000000,-2.000000,2.000000
13762,2026-07-29T17:09:32.251+08:00,583,1.166000,0,1007,6,997,2,7.000000,6.000000,-3.000000,2.000000
13763,2026-07-29T17:09:32.251+08:00,584,1.168000,0,1004,6,999,2,4.000000,6.000000,-1.000000,2.000000
13764,2026-07-29T17:09:32.251+08:00,585,1.170000,0,996,6,1001,2,-4.000000,6.000000,1.000000,2.000000
13765,2026-07-29T17:09:32.251+08:00,586,1.172000,0,995,6,1002,2,-5.000000,6.000000,2.000000,2.000000
13766,2026-07-29T17:09:32.251+08:00,587,1.174000,0,1001,6,999,2,1.000000,6.000000,-1.000000,2.000000
13767,2026-07-29T17:09:32.251+08:00,588,1.176000,0,1005,6,997,2,5.000000,6.000000,-3.000000,2.000000
13768,2026-07-29T17:09:32.251+08:00,589,1.178000,0,1002,6,998,2,2.000000,6.000000,-2.000000,2.000000
13769,2026-07-29T17:09:32.251+08:00,590,1.180000,0,995,6,1001,2,-5.000000,6.000000,1.000000,2.000000
13770,2026-07-29T17:09:32.251+08:00,591,1.182000,0,994,6,1001,2,-6.000000,6.000000,1.000000,2.000000
13771,2026-07-29T17:09:32.251+08:00,592,1.184000,0,998,6,1000,2,-2.000000,6.000000,0.000000,2.000000
13772,2026-07-29T17:09:32.251+08:00,593,1.186000,0,1003,6,998,2,3.000000,6.000000,-2.000000,2.000000
13773,2026-07-29T17:09:32.251+08:00,594,1.188000,0,1003,6,998,2,3.000000,6.000000,-2.000000,2.000000
13774,2026-07-29T17:09:32.270+08:00,595,1.190000,0,999,6,1000,2,-1.000000,6.000000,0.000000,2.000000
13775,2026-07-29T17:09:32.270+08:00,596,1.192000,0,997,6,1000,2,-3.000000,6.000000,0.000000,2.000000
13776,2026-07-29T17:09:32.270+08:00,597,1.194000,0,999,6,1000,2,-1.000000,6.000000,0.000000,2.000000
13777,2026-07-29T17:09:32.270+08:00,598,1.196000,0,1002,6,1000,0,2.000000,6.000000,0.000000,0.000000
13778,2026-07-29T17:09:32.270+08:00,599,1.198000,0,1002,6,999,0,2.000000,6.000000,-1.000000,0.000000
13779,2026-07-29T17:09:32.270+08:00,600,1.200000,0,999,6,999,0,-1.000000,6.000000,-1.000000,0.000000
13780,2026-07-29T17:09:32.270+08:00,601,1.202000,0,998,6,999,0,-2.000000,6.000000,-1.000000,0.000000
13781,2026-07-29T17:09:32.270+08:00,602,1.204000,0,999,6,1000,0,-1.000000,6.000000,0.000000,0.000000
13782,2026-07-29T17:09:32.270+08:00,603,1.206000,0,999,6,999,0,-1.000000,6.000000,-1.000000,0.000000
13783,2026-07-29T17:09:32.270+08:00,604,1.208000,0,997,6,999,0,-3.000000,6.000000,-1.000000,0.000000
13784,2026-07-29T17:09:32.270+08:00,605,1.210000,0,1005,6,997,0,5.000000,6.000000,-3.000000,0.000000
13785,2026-07-29T17:09:32.270+08:00,606,1.212000,0,999,6,998,0,-1.000000,6.000000,-2.000000,0.000000
13786,2026-07-29T17:09:32.270+08:00,607,1.214000,0,993,6,1001,0,-7.000000,6.000000,1.000000,0.000000
13787,2026-07-29T17:09:32.270+08:00,608,1.216000,0,992,6,1003,0,-8.000000,6.000000,3.000000,0.000000
13788,2026-07-29T17:09:32.270+08:00,609,1.218000,0,1006,6,996,2,6.000000,6.000000,-4.000000,2.000000
13789,2026-07-29T17:09:32.270+08:00,610,1.220000,0,1000,6,999,2,0.000000,6.000000,-1.000000,2.000000
13790,2026-07-29T17:09:32.271+08:00,611,1.222000,0,994,6,1002,2,-6.000000,6.000000,2.000000,2.000000
13791,2026-07-29T17:09:32.275+08:00,612,1.224000,0,996,6,1001,2,-4.000000,6.000000,1.000000,2.000000
13792,2026-07-29T17:09:32.275+08:00,613,1.226000,0,1002,6,998,2,2.000000,6.000000,-2.000000,2.000000
13793,2026-07-29T17:09:32.275+08:00,614,1.228000,0,1004,6,998,2,4.000000,6.000000,-2.000000,2.000000
13794,2026-07-29T17:09:32.278+08:00,615,1.230000,0,1001,6,1001,2,1.000000,6.000000,1.000000,2.000000
13795,2026-07-29T17:09:32.278+08:00,616,1.232000,0,996,6,1002,2,-4.000000,6.000000,2.000000,2.000000
13796,2026-07-29T17:09:32.278+08:00,617,1.234000,0,996,6,999,2,-4.000000,6.000000,-1.000000,2.000000
13797,2026-07-29T17:09:32.280+08:00,618,1.236000,0,999,6,997,2,-1.000000,6.000000,-3.000000,2.000000
13798,2026-07-29T17:09:32.280+08:00,619,1.238000,0,1000,6,997,2,0.000000,6.000000,-3.000000,2.000000
13799,2026-07-29T17:09:32.280+08:00,620,1.240000,0,999,6,1001,2,-1.000000,6.000000,1.000000,2.000000
13800,2026-07-29T17:09:32.284+08:00,621,1.242000,0,1001,6,1003,2,1.000000,6.000000,3.000000,2.000000
13801,2026-07-29T17:09:32.284+08:00,622,1.244000,0,1003,6,1001,2,3.000000,6.000000,1.000000,2.000000
13802,2026-07-29T17:09:32.284+08:00,623,1.246000,0,1002,6,998,2,2.000000,6.000000,-2.000000,2.000000
13803,2026-07-29T17:09:32.294+08:00,624,1.248000,0,997,6,997,2,-3.000000,6.000000,-3.000000,2.000000
13804,2026-07-29T17:09:32.294+08:00,625,1.250000,0,994,6,999,2,-6.000000,6.000000,-1.000000,2.000000
13805,2026-07-29T17:09:32.294+08:00,626,1.252000,0,997,6,1001,2,-3.000000,6.000000,1.000000,2.000000
13806,2026-07-29T17:09:32.294+08:00,627,1.254000,0,1003,6,999,2,3.000000,6.000000,-1.000000,2.000000
13807,2026-07-29T17:09:32.299+08:00,628,1.256000,0,1005,6,998,2,5.000000,6.000000,-2.000000,2.000000
13808,2026-07-29T17:09:32.299+08:00,629,1.258000,0,996,6,1002,2,-4.000000,6.000000,2.000000,2.000000
13809,2026-07-29T17:09:32.345+08:00,630,1.260000,0,1004,6,995,2,4.000000,6.000000,-5.000000,2.000000
13810,2026-07-29T17:09:32.345+08:00,631,1.262000,0,1008,6,993,2,8.000000,6.000000,-7.000000,2.000000
13811,2026-07-29T17:09:32.345+08:00,632,1.264000,0,1001,6,999,2,1.000000,6.000000,-1.000000,2.000000
13812,2026-07-29T17:09:32.345+08:00,633,1.266000,0,992,6,1005,2,-8.000000,6.000000,5.000000,2.000000
13813,2026-07-29T17:09:32.345+08:00,634,1.268000,0,993,6,1004,2,-7.000000,6.000000,4.000000,2.000000
13814,2026-07-29T17:09:32.345+08:00,635,1.270000,0,1001,6,999,2,1.000000,6.000000,-1.000000,2.000000
13815,2026-07-29T17:09:32.345+08:00,636,1.272000,0,1005,6,996,2,5.000000,6.000000,-4.000000,2.000000
13816,2026-07-29T17:09:32.345+08:00,637,1.274000,0,1001,6,998,2,1.000000,6.000000,-2.000000,2.000000
13817,2026-07-29T17:09:32.345+08:00,638,1.276000,0,995,6,1000,2,-5.000000,6.000000,0.000000,2.000000
13818,2026-07-29T17:09:32.345+08:00,639,1.278000,0,997,6,1000,2,-3.000000,6.000000,0.000000,2.000000
13819,2026-07-29T17:09:32.345+08:00,640,1.280000,0,1004,6,999,2,4.000000,6.000000,-1.000000,2.000000
13820,2026-07-29T17:09:32.345+08:00,641,1.282000,0,1006,6,998,2,6.000000,6.000000,-2.000000,2.000000
13821,2026-07-29T17:09:32.381+08:00,642,1.284000,0,999,6,1000,2,-1.000000,6.000000,0.000000,2.000000
13822,2026-07-29T17:09:32.381+08:00,643,1.286000,0,992,6,1003,2,-8.000000,6.000000,3.000000,2.000000
13823,2026-07-29T17:09:32.381+08:00,644,1.288000,0,994,6,1002,2,-6.000000,6.000000,2.000000,2.000000
13824,2026-07-29T17:09:32.381+08:00,645,1.290000,0,1002,6,998,2,2.000000,6.000000,-2.000000,2.000000
13825,2026-07-29T17:09:32.381+08:00,646,1.292000,0,1005,6,995,2,5.000000,6.000000,-5.000000,2.000000
13826,2026-07-29T17:09:32.417+08:00,647,1.294000,0,1000,6,997,2,0.000000,6.000000,-3.000000,2.000000
13827,2026-07-29T17:09:32.417+08:00,648,1.296000,0,995,6,1002,2,-5.000000,6.000000,2.000000,2.000000
13828,2026-07-29T17:09:32.417+08:00,649,1.298000,0,997,6,1004,2,-3.000000,6.000000,4.000000,2.000000
13829,2026-07-29T17:09:32.417+08:00,650,1.300000,0,1004,6,1001,2,4.000000,6.000000,1.000000,2.000000
13830,2026-07-29T17:09:32.417+08:00,651,1.302000,0,1005,6,997,2,5.000000,6.000000,-3.000000,2.000000
13831,2026-07-29T17:09:32.417+08:00,652,1.304000,0,998,6,997,2,-2.000000,6.000000,-3.000000,2.000000
13832,2026-07-29T17:09:32.417+08:00,653,1.306000,0,993,6,1000,2,-7.000000,6.000000,0.000000,2.000000
13833,2026-07-29T17:09:32.417+08:00,654,1.308000,0,995,6,1001,2,-5.000000,6.000000,1.000000,2.000000
13834,2026-07-29T17:09:32.417+08:00,655,1.310000,0,1003,6,998,2,3.000000,6.000000,-2.000000,2.000000
13835,2026-07-29T17:09:32.417+08:00,656,1.312000,0,1006,6,998,2,6.000000,6.000000,-2.000000,2.000000
13836,2026-07-29T17:09:32.417+08:00,657,1.314000,0,1001,6,1002,2,1.000000,6.000000,2.000000,2.000000
13837,2026-07-29T17:09:32.417+08:00,658,1.316000,0,993,6,1004,2,-7.000000,6.000000,4.000000,2.000000
13838,2026-07-29T17:09:32.417+08:00,659,1.318000,0,993,6,1000,2,-7.000000,6.000000,0.000000,2.000000
13839,2026-07-29T17:09:32.417+08:00,660,1.320000,0,1002,6,994,2,2.000000,6.000000,-6.000000,2.000000
13840,2026-07-29T17:09:32.417+08:00,661,1.322000,0,1009,6,994,2,9.000000,6.000000,-6.000000,2.000000
13841,2026-07-29T17:09:32.417+08:00,662,1.324000,0,1006,6,1001,2,6.000000,6.000000,1.000000,2.000000
13842,2026-07-29T17:09:32.417+08:00,663,1.326000,0,995,6,1006,2,-5.000000,6.000000,6.000000,2.000000
13843,2026-07-29T17:09:32.417+08:00,664,1.328000,0,989,6,1003,2,-11.000000,6.000000,3.000000,2.000000
13844,2026-07-29T17:09:32.417+08:00,665,1.330000,0,993,6,997,2,-7.000000,6.000000,-3.000000,2.000000
13845,2026-07-29T17:09:32.417+08:00,666,1.332000,0,1004,6,996,2,4.000000,6.000000,-4.000000,2.000000
13846,2026-07-29T17:09:32.417+08:00,667,1.334000,0,1009,6,1000,2,9.000000,6.000000,0.000000,2.000000
13847,2026-07-29T17:09:32.417+08:00,668,1.336000,0,1003,6,1002,2,3.000000,6.000000,2.000000,2.000000
13848,2026-07-29T17:09:32.417+08:00,669,1.338000,0,995,6,1000,2,-5.000000,6.000000,0.000000,2.000000
13849,2026-07-29T17:09:32.417+08:00,670,1.340000,0,994,6,996,2,-6.000000,6.000000,-4.000000,2.000000
13850,2026-07-29T17:09:32.417+08:00,671,1.342000,0,1001,6,998,2,1.000000,6.000000,-2.000000,2.000000
13851,2026-07-29T17:09:32.421+08:00,672,1.344000,0,1004,6,1004,2,4.000000,6.000000,4.000000,2.000000
13852,2026-07-29T17:09:32.421+08:00,673,1.346000,0,1001,6,1003,2,1.000000,6.000000,3.000000,2.000000
13853,2026-07-29T17:09:32.421+08:00,674,1.348000,0,997,6,997,2,-3.000000,6.000000,-3.000000,2.000000
13854,2026-07-29T17:09:32.423+08:00,675,1.350000,0,998,6,993,2,-2.000000,6.000000,-7.000000,2.000000
13855,2026-07-29T17:09:32.423+08:00,676,1.352000,0,999,6,999,2,-1.000000,6.000000,-1.000000,2.000000
13856,2026-07-29T17:09:32.423+08:00,677,1.354000,0,998,6,1005,2,-2.000000,6.000000,5.000000,2.000000
13857,2026-07-29T17:09:32.423+08:00,678,1.356000,0,997,6,1004,2,-3.000000,6.000000,4.000000,2.000000
13858,2026-07-29T17:09:32.427+08:00,679,1.358000,0,1001,6,997,2,1.000000,6.000000,-3.000000,2.000000
13859,2026-07-29T17:09:32.427+08:00,680,1.360000,0,1006,6,994,2,6.000000,6.000000,-6.000000,2.000000
13860,2026-07-29T17:09:32.427+08:00,681,1.362000,0,1005,6,998,2,5.000000,6.000000,-2.000000,2.000000
13861,2026-07-29T17:09:32.429+08:00,682,1.364000,0,998,6,1003,2,-2.000000,6.000000,3.000000,2.000000
13862,2026-07-29T17:09:32.429+08:00,683,1.366000,0,991,6,1003,2,-9.000000,6.000000,3.000000,2.000000
13863,2026-07-29T17:09:32.429+08:00,684,1.368000,0,992,6,999,2,-8.000000,6.000000,-1.000000,2.000000
13864,2026-07-29T17:09:32.442+08:00,685,1.370000,0,1001,6,995,2,1.000000,6.000000,-5.000000,2.000000
13865,2026-07-29T17:09:32.442+08:00,686,1.372000,0,1008,6,996,2,8.000000,6.000000,-4.000000,2.000000
13866,2026-07-29T17:09:32.442+08:00,687,1.374000,0,1006,6,1001,2,6.000000,6.000000,1.000000,2.000000
13867,2026-07-29T17:09:32.488+08:00,688,1.376000,0,997,6,1004,2,-3.000000,6.000000,4.000000,2.000000
13868,2026-07-29T17:09:32.488+08:00,689,1.378000,0,992,6,1002,2,-8.000000,6.000000,2.000000,2.000000
13869,2026-07-29T17:09:32.488+08:00,690,1.380000,0,997,6,997,2,-3.000000,6.000000,-3.000000,2.000000
13870,2026-07-29T17:09:32.488+08:00,691,1.382000,0,1005,6,994,2,5.000000,6.000000,-6.000000,2.000000
13871,2026-07-29T17:09:32.488+08:00,692,1.384000,0,1005,6,997,2,5.000000,6.000000,-3.000000,2.000000
13872,2026-07-29T17:09:32.488+08:00,693,1.386000,0,998,6,1003,2,-2.000000,6.000000,3.000000,2.000000
13873,2026-07-29T17:09:32.488+08:00,694,1.388000,0,993,6,1005,2,-7.000000,6.000000,5.000000,2.000000
13874,2026-07-29T17:09:32.488+08:00,695,1.390000,0,996,6,1001,2,-4.000000,6.000000,1.000000,2.000000
13875,2026-07-29T17:09:32.488+08:00,696,1.392000,0,1003,6,995,2,3.000000,6.000000,-5.000000,2.000000
13876,2026-07-29T17:09:32.488+08:00,697,1.394000,0,1004,6,995,2,4.000000,6.000000,-5.000000,2.000000
13877,2026-07-29T17:09:32.488+08:00,698,1.396000,0,998,6,999,2,-2.000000,6.000000,-1.000000,2.000000
13878,2026-07-29T17:09:32.488+08:00,699,1.398000,0,994,6,1003,2,-6.000000,6.000000,3.000000,2.000000
13879,2026-07-29T17:09:32.488+08:00,700,1.400000,0,999,6,1003,2,-1.000000,6.000000,3.000000,2.000000
13880,2026-07-29T17:09:32.488+08:00,701,1.402000,0,1006,6,1000,2,6.000000,6.000000,0.000000,2.000000
13881,2026-07-29T17:09:32.488+08:00,702,1.404000,0,1004,6,998,2,4.000000,6.000000,-2.000000,2.000000
13882,2026-07-29T17:09:32.497+08:00,703,1.406000,0,994,6,999,2,-6.000000,6.000000,-1.000000,2.000000
13883,2026-07-29T17:09:32.497+08:00,704,1.408000,0,999,6,1000,2,-1.000000,6.000000,0.000000,2.000000
13884,2026-07-29T17:09:32.543+08:00,705,1.410000,0,1004,6,1001,2,4.000000,6.000000,1.000000,2.000000
13885,2026-07-29T17:09:32.543+08:00,706,1.412000,0,1000,6,1000,2,0.000000,6.000000,0.000000,2.000000
13886,2026-07-29T17:09:32.543+08:00,707,1.414000,0,995,6,1000,2,-5.000000,6.000000,0.000000,2.000000
13887,2026-07-29T17:09:32.545+08:00,708,1.416000,0,997,6,999,2,-3.000000,6.000000,-1.000000,2.000000
13888,2026-07-29T17:09:32.545+08:00,709,1.418000,0,1005,6,998,2,5.000000,6.000000,-2.000000,2.000000
13889,2026-07-29T17:09:32.545+08:00,710,1.420000,0,1008,6,998,2,8.000000,6.000000,-2.000000,2.000000
13890,2026-07-29T17:09:32.545+08:00,711,1.422000,0,1001,6,999,2,1.000000,6.000000,-1.000000,2.000000
13891,2026-07-29T17:09:32.545+08:00,712,1.424000,0,992,6,1001,2,-8.000000,6.000000,1.000000,2.000000
13892,2026-07-29T17:09:32.545+08:00,713,1.426000,0,991,6,1002,2,-9.000000,6.000000,2.000000,2.000000
13893,2026-07-29T17:09:32.545+08:00,714,1.428000,0,999,6,1000,2,-1.000000,6.000000,0.000000,2.000000
13894,2026-07-29T17:09:32.545+08:00,715,1.430000,0,1005,6,998,2,5.000000,6.000000,-2.000000,2.000000
13895,2026-07-29T17:09:32.545+08:00,716,1.432000,0,1004,6,997,2,4.000000,6.000000,-3.000000,2.000000
13896,2026-07-29T17:09:32.545+08:00,717,1.434000,0,998,6,998,2,-2.000000,6.000000,-2.000000,2.000000
13897,2026-07-29T17:09:32.545+08:00,718,1.436000,0,996,6,1001,2,-4.000000,6.000000,1.000000,2.000000
13898,2026-07-29T17:09:32.545+08:00,719,1.438000,0,1000,6,1003,2,0.000000,6.000000,3.000000,2.000000
13899,2026-07-29T17:09:32.545+08:00,720,1.440000,0,1004,6,1001,2,4.000000,6.000000,1.000000,2.000000
13900,2026-07-29T17:09:32.545+08:00,721,1.442000,0,1002,6,998,2,2.000000,6.000000,-2.000000,2.000000
13901,2026-07-29T17:09:32.545+08:00,722,1.444000,0,995,6,997,2,-5.000000,6.000000,-3.000000,2.000000
13902,2026-07-29T17:09:32.545+08:00,723,1.446000,0,993,6,999,2,-7.000000,6.000000,-1.000000,2.000000
13903,2026-07-29T17:09:32.563+08:00,724,1.448000,0,997,6,1001,2,-3.000000,6.000000,1.000000,2.000000
13904,2026-07-29T17:09:32.563+08:00,725,1.450000,0,1005,6,1000,2,5.000000,6.000000,0.000000,2.000000
13905,2026-07-29T17:09:32.563+08:00,726,1.452000,0,1007,6,998,2,7.000000,6.000000,-2.000000,2.000000
13906,2026-07-29T17:09:32.563+08:00,727,1.454000,0,1000,6,998,2,0.000000,6.000000,-2.000000,2.000000
13907,2026-07-29T17:09:32.563+08:00,728,1.456000,0,993,6,1001,2,-7.000000,6.000000,1.000000,2.000000
13908,2026-07-29T17:09:32.563+08:00,729,1.458000,0,994,6,1003,2,-6.000000,6.000000,3.000000,2.000000
13909,2026-07-29T17:09:32.563+08:00,730,1.460000,0,1002,6,1000,2,2.000000,6.000000,0.000000,2.000000
13910,2026-07-29T17:09:32.563+08:00,731,1.462000,0,1006,6,996,2,6.000000,6.000000,-4.000000,2.000000
13911,2026-07-29T17:09:32.563+08:00,732,1.464000,0,1002,6,996,2,2.000000,6.000000,-4.000000,2.000000
13912,2026-07-29T17:09:32.563+08:00,733,1.466000,0,996,6,1001,2,-4.000000,6.000000,1.000000,2.000000
13913,2026-07-29T17:09:32.563+08:00,734,1.468000,0,996,6,1004,2,-4.000000,6.000000,4.000000,2.000000
13914,2026-07-29T17:09:32.563+08:00,735,1.470000,0,999,6,1001,2,-1.000000,6.000000,1.000000,2.000000
13915,2026-07-29T17:09:32.563+08:00,736,1.472000,0,1000,6,997,2,0.000000,6.000000,-3.000000,2.000000
13916,2026-07-29T17:09:32.571+08:00,737,1.474000,0,1005,6,998,2,5.000000,6.000000,-2.000000,2.000000
13917,2026-07-29T17:09:32.638+08:00,738,1.476000,0,1003,6,994,2,3.000000,6.000000,-6.000000,2.000000
13918,2026-07-29T17:09:32.638+08:00,739,1.478000,0,997,6,997,2,-3.000000,6.000000,-3.000000,2.000000
13919,2026-07-29T17:09:32.638+08:00,740,1.480000,0,996,6,1002,2,-4.000000,6.000000,2.000000,2.000000
13920,2026-07-29T17:09:32.638+08:00,741,1.482000,0,1000,6,1003,2,0.000000,6.000000,3.000000,2.000000
13921,2026-07-29T17:09:32.638+08:00,742,1.484000,0,1005,6,999,2,5.000000,6.000000,-1.000000,2.000000
13922,2026-07-29T17:09:32.638+08:00,743,1.486000,0,1002,6,997,2,2.000000,6.000000,-3.000000,2.000000
13923,2026-07-29T17:09:32.638+08:00,744,1.488000,0,996,6,1000,2,-4.000000,6.000000,0.000000,2.000000
13924,2026-07-29T17:09:32.638+08:00,745,1.490000,0,993,6,1002,2,-7.000000,6.000000,2.000000,2.000000
13925,2026-07-29T17:09:32.638+08:00,746,1.492000,0,998,6,1000,2,-2.000000,6.000000,0.000000,2.000000
13926,2026-07-29T17:09:32.638+08:00,747,1.494000,0,1005,6,996,2,5.000000,6.000000,-4.000000,2.000000
13927,2026-07-29T17:09:32.638+08:00,748,1.496000,0,1004,6,996,2,4.000000,6.000000,-4.000000,2.000000
13928,2026-07-29T17:09:32.638+08:00,749,1.498000,0,998,6,1001,2,-2.000000,6.000000,1.000000,2.000000
13929,2026-07-29T17:09:32.638+08:00,750,1.500000,0,995,6,1004,2,-5.000000,6.000000,4.000000,2.000000
13930,2026-07-29T17:09:32.638+08:00,751,1.502000,0,999,6,1004,2,-1.000000,6.000000,4.000000,2.000000
13931,2026-07-29T17:09:32.638+08:00,752,1.504000,0,1004,6,999,2,4.000000,6.000000,-1.000000,2.000000
13932,2026-07-29T17:09:32.638+08:00,753,1.506000,0,1002,6,994,2,2.000000,6.000000,-6.000000,2.000000
13933,2026-07-29T17:09:32.638+08:00,754,1.508000,0,996,6,994,2,-4.000000,6.000000,-6.000000,2.000000
13934,2026-07-29T17:09:32.638+08:00,755,1.510000,0,994,6,999,2,-6.000000,6.000000,-1.000000,2.000000
13935,2026-07-29T17:09:32.638+08:00,756,1.512000,0,999,6,1005,2,-1.000000,6.000000,5.000000,2.000000
13936,2026-07-29T17:09:32.639+08:00,757,1.514000,0,1005,6,1004,4,5.000000,6.000000,4.000000,4.000000
13937,2026-07-29T17:09:32.639+08:00,758,1.516000,0,1003,6,1000,4,3.000000,6.000000,0.000000,4.000000
13938,2026-07-29T17:09:32.639+08:00,759,1.518000,0,995,6,996,4,-5.000000,6.000000,-4.000000,4.000000
13939,2026-07-29T17:09:32.639+08:00,760,1.520000,0,991,6,997,-17494,-9.000000,6.000000,-3.000000,-17494.000000
13940,2026-07-29T17:09:32.639+08:00,761,1.522000,0,1011,6,996,2,11.000000,6.000000,-4.000000,2.000000
13941,2026-07-29T17:09:32.639+08:00,762,1.524000,0,1007,6,999,2,7.000000,6.000000,-1.000000,2.000000
13942,2026-07-29T17:09:32.639+08:00,763,1.526000,0,997,6,1001,2,-3.000000,6.000000,1.000000,2.000000
13943,2026-07-29T17:09:32.639+08:00,764,1.528000,0,993,6,1001,2,-7.000000,6.000000,1.000000,2.000000
13944,2026-07-29T17:09:32.639+08:00,765,1.530000,0,998,6,999,2,-2.000000,6.000000,-1.000000,2.000000
13945,2026-07-29T17:09:32.639+08:00,766,1.532000,0,1003,6,1000,2,3.000000,6.000000,0.000000,2.000000
13946,2026-07-29T17:09:32.663+08:00,767,1.534000,0,1000,6,1001,2,0.000000,6.000000,1.000000,2.000000
13947,2026-07-29T17:09:32.670+08:00,768,1.536000,0,996,6,1000,2,-4.000000,6.000000,0.000000,2.000000
13948,2026-07-29T17:09:32.670+08:00,769,1.538000,0,997,6,997,2,-3.000000,6.000000,-3.000000,2.000000
13949,2026-07-29T17:09:32.670+08:00,770,1.540000,0,1001,6,997,2,1.000000,6.000000,-3.000000,2.000000
13950,2026-07-29T17:09:32.670+08:00,771,1.542000,0,1003,6,1000,2,3.000000,6.000000,0.000000,2.000000
13951,2026-07-29T17:09:32.670+08:00,772,1.544000,0,1000,6,1003,2,0.000000,6.000000,3.000000,2.000000
13952,2026-07-29T17:09:32.670+08:00,773,1.546000,0,996,6,1002,2,-4.000000,6.000000,2.000000,2.000000
13953,2026-07-29T17:09:32.674+08:00,774,1.548000,0,997,6,998,2,-3.000000,6.000000,-2.000000,2.000000
13954,2026-07-29T17:09:32.674+08:00,775,1.550000,0,1002,6,996,2,2.000000,6.000000,-4.000000,2.000000
13955,2026-07-29T17:09:32.674+08:00,776,1.552000,0,1003,6,998,2,3.000000,6.000000,-2.000000,2.000000
13956,2026-07-29T17:09:32.674+08:00,777,1.554000,0,1000,6,1002,2,0.000000,6.000000,2.000000,2.000000
13957,2026-07-29T17:09:32.674+08:00,778,1.556000,0,996,6,1002,2,-4.000000,6.000000,2.000000,2.000000
13958,2026-07-29T17:09:32.674+08:00,779,1.558000,0,997,6,998,2,-3.000000,6.000000,-2.000000,2.000000
13959,2026-07-29T17:09:32.677+08:00,780,1.560000,0,1000,6,995,2,0.000000,6.000000,-5.000000,2.000000
13960,2026-07-29T17:09:32.677+08:00,781,1.562000,0,1001,6,999,2,1.000000,6.000000,-1.000000,2.000000
13961,2026-07-29T17:09:32.692+08:00,782,1.564000,0,999,6,1004,2,-1.000000,6.000000,4.000000,2.000000
13962,2026-07-29T17:09:32.692+08:00,783,1.566000,0,998,6,1004,2,-2.000000,6.000000,4.000000,2.000000
13963,2026-07-29T17:09:32.692+08:00,784,1.568000,0,1000,6,997,2,0.000000,6.000000,-3.000000,2.000000
13964,2026-07-29T17:09:32.692+08:00,785,1.570000,0,1003,6,992,2,3.000000,6.000000,-8.000000,2.000000
13965,2026-07-29T17:09:32.692+08:00,786,1.572000,0,1003,6,996,2,3.000000,6.000000,-4.000000,2.000000
13966,2026-07-29T17:09:32.692+08:00,787,1.574000,0,1000,6,1005,2,0.000000,6.000000,5.000000,2.000000
13967,2026-07-29T17:09:32.692+08:00,788,1.576000,0,996,6,1007,2,-4.000000,6.000000,7.000000,2.000000
13968,2026-07-29T17:09:32.692+08:00,789,1.578000,0,995,6,1000,2,-5.000000,6.000000,0.000000,2.000000
13969,2026-07-29T17:09:32.692+08:00,790,1.580000,0,998,6,993,2,-2.000000,6.000000,-7.000000,2.000000
13970,2026-07-29T17:09:32.692+08:00,791,1.582000,0,1002,6,995,2,2.000000,6.000000,-5.000000,2.000000
13971,2026-07-29T17:09:32.692+08:00,792,1.584000,0,1000,6,998,2,0.000000,6.000000,-2.000000,2.000000
13972,2026-07-29T17:09:32.692+08:00,793,1.586000,0,998,6,997,2,-2.000000,6.000000,-3.000000,2.000000
13973,2026-07-29T17:09:32.692+08:00,794,1.588000,0,1001,6,994,2,1.000000,6.000000,-6.000000,2.000000
13974,2026-07-29T17:09:32.692+08:00,795,1.590000,0,1001,6,998,2,1.000000,6.000000,-2.000000,2.000000
13975,2026-07-29T17:09:32.692+08:00,796,1.592000,0,999,6,1004,2,-1.000000,6.000000,4.000000,2.000000
13976,2026-07-29T17:09:32.692+08:00,797,1.594000,0,998,6,1004,2,-2.000000,6.000000,4.000000,2.000000
13977,2026-07-29T17:09:32.712+08:00,798,1.596000,0,1001,6,1001,2,1.000000,6.000000,1.000000,2.000000
13978,2026-07-29T17:09:32.712+08:00,799,1.598000,0,1003,6,996,2,3.000000,6.000000,-4.000000,2.000000
13979,2026-07-29T17:09:32.712+08:00,800,1.600000,0,1000,4,995,2,0.000000,4.000000,-5.000000,2.000000
13980,2026-07-29T17:09:32.712+08:00,801,1.602000,0,995,4,997,2,-5.000000,4.000000,-3.000000,2.000000
13981,2026-07-29T17:09:32.712+08:00,802,1.604000,0,996,4,1001,2,-4.000000,4.000000,1.000000,2.000000
13982,2026-07-29T17:09:32.712+08:00,803,1.606000,0,1003,4,1005,2,3.000000,4.000000,5.000000,2.000000
13983,2026-07-29T17:09:32.712+08:00,804,1.608000,0,1005,6,1004,2,5.000000,6.000000,4.000000,2.000000
13984,2026-07-29T17:09:32.714+08:00,805,1.610000,0,999,4,998,2,-1.000000,4.000000,-2.000000,2.000000
13985,2026-07-29T17:09:32.714+08:00,806,1.612000,0,991,6,993,2,-9.000000,6.000000,-7.000000,2.000000
13986,2026-07-29T17:09:32.714+08:00,807,1.614000,0,993,6,996,4,-7.000000,6.000000,-4.000000,4.000000
13987,2026-07-29T17:09:32.718+08:00,808,1.616000,0,1005,6,1001,4,5.000000,6.000000,1.000000,4.000000
13988,2026-07-29T17:09:32.718+08:00,809,1.618000,0,1012,6,1004,4,12.000000,6.000000,4.000000,4.000000
13989,2026-07-29T17:09:32.718+08:00,810,1.620000,0,1006,6,1002,4,6.000000,6.000000,2.000000,4.000000
13990,2026-07-29T17:09:32.724+08:00,811,1.622000,0,993,6,998,4,-7.000000,6.000000,-2.000000,4.000000
13991,2026-07-29T17:09:32.724+08:00,812,1.624000,0,987,6,997,4,-13.000000,6.000000,-3.000000,4.000000
13992,2026-07-29T17:09:32.724+08:00,813,1.626000,0,994,6,998,4,-6.000000,6.000000,-2.000000,4.000000
13993,2026-07-29T17:09:32.729+08:00,814,1.628000,0,1005,6,1000,4,5.000000,6.000000,0.000000,4.000000
13994,2026-07-29T17:09:32.729+08:00,815,1.630000,0,1008,6,1001,4,8.000000,6.000000,1.000000,4.000000
13995,2026-07-29T17:09:32.729+08:00,816,1.632000,0,1002,6,1001,4,2.000000,6.000000,1.000000,4.000000
13996,2026-07-29T17:09:32.743+08:00,817,1.634000,0,996,6,1001,4,-4.000000,6.000000,1.000000,4.000000
13997,2026-07-29T17:09:32.743+08:00,818,1.636000,0,998,6,998,4,-2.000000,6.000000,-2.000000,4.000000
13998,2026-07-29T17:09:32.743+08:00,819,1.638000,0,1002,6,997,4,2.000000,6.000000,-3.000000,4.000000
13999,2026-07-29T17:09:32.743+08:00,820,1.640000,0,1001,6,999,4,1.000000,6.000000,-1.000000,4.000000
14000,2026-07-29T17:09:32.743+08:00,821,1.642000,0,996,6,1002,4,-4.000000,6.000000,2.000000,4.000000
14001,2026-07-29T17:09:32.743+08:00,822,1.644000,0,995,6,1002,4,-5.000000,6.000000,2.000000,4.000000
14002,2026-07-29T17:09:32.743+08:00,823,1.646000,0,1001,6,999,4,1.000000,6.000000,-1.000000,4.000000
14003,2026-07-29T17:09:32.743+08:00,824,1.648000,0,1006,6,997,4,6.000000,6.000000,-3.000000,4.000000
14004,2026-07-29T17:09:32.743+08:00,825,1.650000,0,1001,6,999,4,1.000000,6.000000,-1.000000,4.000000
14005,2026-07-29T17:09:32.743+08:00,826,1.652000,0,992,6,1001,4,-8.000000,6.000000,1.000000,4.000000
14006,2026-07-29T17:09:32.743+08:00,827,1.654000,0,993,6,1000,4,-7.000000,6.000000,0.000000,4.000000
14007,2026-07-29T17:09:32.750+08:00,828,1.656000,0,1003,6,998,4,3.000000,6.000000,-2.000000,4.000000
14008,2026-07-29T17:09:32.750+08:00,829,1.658000,0,1010,6,998,4,10.000000,6.000000,-2.000000,4.000000
14009,2026-07-29T17:09:32.750+08:00,830,1.660000,0,1004,6,1001,4,4.000000,6.000000,1.000000,4.000000
14010,2026-07-29T17:09:32.750+08:00,831,1.662000,0,993,6,1002,4,-7.000000,6.000000,2.000000,4.000000
14011,2026-07-29T17:09:32.750+08:00,832,1.664000,0,990,6,1001,4,-10.000000,6.000000,1.000000,4.000000
14012,2026-07-29T17:09:32.750+08:00,833,1.666000,0,998,6,996,4,-2.000000,6.000000,-4.000000,4.000000
14013,2026-07-29T17:09:32.770+08:00,834,1.668000,0,1005,6,995,4,5.000000,6.000000,-5.000000,4.000000
14014,2026-07-29T17:09:32.770+08:00,835,1.670000,0,1004,6,999,4,4.000000,6.000000,-1.000000,4.000000
14015,2026-07-29T17:09:32.770+08:00,836,1.672000,0,998,6,1004,4,-2.000000,6.000000,4.000000,4.000000
14016,2026-07-29T17:09:32.770+08:00,837,1.674000,0,996,6,1004,4,-4.000000,6.000000,4.000000,4.000000
14017,2026-07-29T17:09:32.770+08:00,838,1.676000,0,1000,6,999,4,0.000000,6.000000,-1.000000,4.000000
14018,2026-07-29T17:09:32.770+08:00,839,1.678000,0,1004,6,995,4,4.000000,6.000000,-5.000000,4.000000
14019,2026-07-29T17:09:32.770+08:00,840,1.680000,0,1001,6,997,4,1.000000,6.000000,-3.000000,4.000000
14020,2026-07-29T17:09:32.770+08:00,841,1.682000,0,995,6,1000,4,-5.000000,6.000000,0.000000,4.000000
14021,2026-07-29T17:09:32.770+08:00,842,1.684000,0,995,6,1002,4,-5.000000,6.000000,2.000000,4.000000
14022,2026-07-29T17:09:32.770+08:00,843,1.686000,0,1001,6,1001,4,1.000000,6.000000,1.000000,4.000000
14023,2026-07-29T17:09:32.770+08:00,844,1.688000,0,1005,6,999,4,5.000000,6.000000,-1.000000,4.000000
14024,2026-07-29T17:09:32.770+08:00,845,1.690000,0,993,6,1000,4,-7.000000,6.000000,0.000000,4.000000
14025,2026-07-29T17:09:32.770+08:00,846,1.692000,0,995,6,999,4,-5.000000,6.000000,-1.000000,4.000000
14026,2026-07-29T17:09:32.788+08:00,847,1.694000,0,1004,6,997,4,4.000000,6.000000,-3.000000,4.000000
14027,2026-07-29T17:09:32.788+08:00,848,1.696000,0,1008,6,998,4,8.000000,6.000000,-2.000000,4.000000
14028,2026-07-29T17:09:32.788+08:00,849,1.698000,0,1002,6,1002,4,2.000000,6.000000,2.000000,4.000000
14029,2026-07-29T17:09:32.798+08:00,850,1.700000,0,993,6,1003,4,-7.000000,6.000000,3.000000,4.000000
14030,2026-07-29T17:09:32.798+08:00,851,1.702000,0,993,6,1000,4,-7.000000,6.000000,0.000000,4.000000
14031,2026-07-29T17:09:32.800+08:00,852,1.704000,0,999,6,997,2,-1.000000,6.000000,-3.000000,2.000000
14032,2026-07-29T17:09:32.800+08:00,853,1.706000,0,1003,6,997,2,3.000000,6.000000,-3.000000,2.000000
14033,2026-07-29T17:09:32.800+08:00,854,1.708000,0,1002,6,1000,2,2.000000,6.000000,0.000000,2.000000
14034,2026-07-29T17:09:32.804+08:00,855,1.710000,0,999,6,1001,2,-1.000000,6.000000,1.000000,2.000000
14035,2026-07-29T17:09:32.804+08:00,856,1.712000,0,999,6,998,2,-1.000000,6.000000,-2.000000,2.000000
14036,2026-07-29T17:09:32.804+08:00,857,1.714000,0,1001,6,997,2,1.000000,6.000000,-3.000000,2.000000
14037,2026-07-29T17:09:32.812+08:00,858,1.716000,0,1001,6,1000,2,1.000000,6.000000,0.000000,2.000000
14038,2026-07-29T17:09:32.817+08:00,859,1.718000,0,999,6,1004,2,-1.000000,6.000000,4.000000,2.000000
14039,2026-07-29T17:09:32.817+08:00,860,1.720000,0,997,6,1002,2,-3.000000,6.000000,2.000000,2.000000
14040,2026-07-29T17:09:32.817+08:00,861,1.722000,0,997,6,996,2,-3.000000,6.000000,-4.000000,2.000000
14041,2026-07-29T17:09:32.817+08:00,862,1.724000,0,1000,6,993,4,0.000000,6.000000,-7.000000,4.000000
14042,2026-07-29T17:09:32.817+08:00,863,1.726000,0,1002,6,998,4,2.000000,6.000000,-2.000000,4.000000
14043,2026-07-29T17:09:32.817+08:00,864,1.728000,0,1001,6,1004,4,1.000000,6.000000,4.000000,4.000000
14044,2026-07-29T17:09:32.823+08:00,865,1.730000,0,999,6,1005,4,-1.000000,6.000000,5.000000,4.000000
14045,2026-07-29T17:09:32.823+08:00,866,1.732000,0,998,6,1000,4,-2.000000,6.000000,0.000000,4.000000
14046,2026-07-29T17:09:32.823+08:00,867,1.734000,0,999,6,996,4,-1.000000,6.000000,-4.000000,4.000000
14047,2026-07-29T17:09:32.823+08:00,868,1.736000,0,1001,6,996,2,1.000000,6.000000,-4.000000,2.000000
14048,2026-07-29T17:09:32.845+08:00,869,1.738000,0,1001,6,1000,2,1.000000,6.000000,0.000000,2.000000
14049,2026-07-29T17:09:32.845+08:00,870,1.740000,0,999,6,1002,2,-1.000000,6.000000,2.000000,2.000000
14050,2026-07-29T17:09:32.845+08:00,871,1.742000,0,998,6,1001,2,-2.000000,6.000000,1.000000,2.000000
14051,2026-07-29T17:09:32.845+08:00,872,1.744000,0,1000,6,999,2,0.000000,6.000000,-1.000000,2.000000
14052,2026-07-29T17:09:32.845+08:00,873,1.746000,0,1001,6,999,2,1.000000,6.000000,-1.000000,2.000000
14053,2026-07-29T17:09:32.845+08:00,874,1.748000,0,998,4,999,2,-2.000000,4.000000,-1.000000,2.000000
14054,2026-07-29T17:09:32.845+08:00,875,1.750000,0,995,4,999,2,-5.000000,4.000000,-1.000000,2.000000
14055,2026-07-29T17:09:32.845+08:00,876,1.752000,0,998,4,1000,2,-2.000000,4.000000,0.000000,2.000000
14056,2026-07-29T17:09:32.845+08:00,877,1.754000,0,1005,4,1000,2,5.000000,4.000000,0.000000,2.000000
14057,2026-07-29T17:09:32.845+08:00,878,1.756000,0,1007,4,999,2,7.000000,4.000000,-1.000000,2.000000
14058,2026-07-29T17:09:32.845+08:00,879,1.758000,0,1001,4,998,2,1.000000,4.000000,-2.000000,2.000000
14059,2026-07-29T17:09:32.845+08:00,880,1.760000,0,992,4,998,2,-8.000000,4.000000,-2.000000,2.000000
14060,2026-07-29T17:09:32.845+08:00,881,1.762000,0,992,4,1002,2,-8.000000,4.000000,2.000000,2.000000
14061,2026-07-29T17:09:32.845+08:00,882,1.764000,0,1003,4,996,2,3.000000,4.000000,-4.000000,2.000000
14062,2026-07-29T17:09:32.876+08:00,883,1.766000,0,997,4,997,2,-3.000000,4.000000,-3.000000,2.000000
14063,2026-07-29T17:09:32.876+08:00,884,1.768000,0,996,4,1002,2,-4.000000,4.000000,2.000000,2.000000
14064,2026-07-29T17:09:32.876+08:00,885,1.770000,0,1001,4,1003,2,1.000000,4.000000,3.000000,2.000000
14065,2026-07-29T17:09:32.876+08:00,886,1.772000,0,1005,4,999,2,5.000000,4.000000,-1.000000,2.000000
14066,2026-07-29T17:09:32.876+08:00,887,1.774000,0,1001,4,996,2,1.000000,4.000000,-4.000000,2.000000
14067,2026-07-29T17:09:32.884+08:00,888,1.776000,0,994,4,999,2,-6.000000,4.000000,-1.000000,2.000000
14068,2026-07-29T17:09:32.884+08:00,889,1.778000,0,994,4,1003,2,-6.000000,4.000000,3.000000,2.000000
14069,2026-07-29T17:09:32.884+08:00,890,1.780000,0,1001,4,1002,2,1.000000,4.000000,2.000000,2.000000
14070,2026-07-29T17:09:32.884+08:00,891,1.782000,0,1006,4,997,2,6.000000,4.000000,-3.000000,2.000000
14071,2026-07-29T17:09:32.895+08:00,892,1.784000,0,1001,4,995,2,1.000000,4.000000,-5.000000,2.000000
14072,2026-07-29T17:09:32.895+08:00,893,1.786000,0,992,4,998,2,-8.000000,4.000000,-2.000000,2.000000
14073,2026-07-29T17:09:32.895+08:00,894,1.788000,0,993,4,1004,4,-7.000000,4.000000,4.000000,4.000000
14074,2026-07-29T17:09:32.895+08:00,895,1.790000,0,1004,4,1004,4,4.000000,4.000000,4.000000,4.000000
14075,2026-07-29T17:09:32.895+08:00,896,1.792000,0,1013,4,999,4,13.000000,4.000000,-1.000000,4.000000
14076,2026-07-29T17:09:32.895+08:00,897,1.794000,0,1006,6,995,4,6.000000,6.000000,-5.000000,4.000000
14077,2026-07-29T17:09:32.895+08:00,898,1.796000,0,990,6,998,4,-10.000000,6.000000,-2.000000,4.000000
14078,2026-07-29T17:09:32.916+08:00,899,1.798000,0,983,6,1002,4,-17.000000,6.000000,2.000000,4.000000
14079,2026-07-29T17:09:32.916+08:00,900,1.800000,0,994,6,1002,4,-6.000000,6.000000,2.000000,4.000000
14080,2026-07-29T17:09:32.934+08:00,901,1.802000,0,1010,6,998,4,10.000000,6.000000,-2.000000,4.000000
14081,2026-07-29T17:09:32.934+08:00,902,1.804000,0,1012,6,997,2,12.000000,6.000000,-3.000000,2.000000
14082,2026-07-29T17:09:32.934+08:00,903,1.806000,0,1001,6,999,2,1.000000,6.000000,-1.000000,2.000000
14083,2026-07-29T17:09:32.934+08:00,904,1.808000,0,991,6,1002,2,-9.000000,6.000000,2.000000,2.000000
14084,2026-07-29T17:09:32.936+08:00,905,1.810000,0,992,6,1002,2,-8.000000,6.000000,2.000000,2.000000
14085,2026-07-29T17:09:32.936+08:00,906,1.812000,0,1000,6,999,2,0.000000,6.000000,-1.000000,2.000000
14086,2026-07-29T17:09:32.936+08:00,907,1.814000,0,1005,6,997,2,5.000000,6.000000,-3.000000,2.000000
14087,2026-07-29T17:09:32.940+08:00,908,1.816000,0,1002,6,998,2,2.000000,6.000000,-2.000000,2.000000
14088,2026-07-29T17:09:32.940+08:00,909,1.818000,0,998,6,1000,2,-2.000000,6.000000,0.000000,2.000000
14089,2026-07-29T17:09:32.940+08:00,910,1.820000,0,999,6,1000,2,-1.000000,6.000000,0.000000,2.000000
14090,2026-07-29T17:09:32.943+08:00,911,1.822000,0,1000,6,999,2,0.000000,6.000000,-1.000000,2.000000
14091,2026-07-29T17:09:32.943+08:00,912,1.824000,0,996,6,1000,2,-4.000000,6.000000,0.000000,2.000000
14092,2026-07-29T17:09:32.943+08:00,913,1.826000,0,994,6,1001,2,-6.000000,6.000000,1.000000,2.000000
14093,2026-07-29T17:09:32.946+08:00,914,1.828000,0,1000,6,1000,2,0.000000,6.000000,0.000000,2.000000
14094,2026-07-29T17:09:32.946+08:00,915,1.830000,0,1008,6,997,2,8.000000,6.000000,-3.000000,2.000000
14095,2026-07-29T17:09:32.946+08:00,916,1.832000,0,1007,6,996,2,7.000000,6.000000,-4.000000,2.000000
14096,2026-07-29T17:09:32.946+08:00,917,1.834000,0,996,6,999,2,-4.000000,6.000000,-1.000000,2.000000
14097,2026-07-29T17:09:32.967+08:00,918,1.836000,0,1006,6,996,2,6.000000,6.000000,-4.000000,2.000000
14098,2026-07-29T17:09:32.967+08:00,919,1.838000,0,996,6,997,2,-4.000000,6.000000,-3.000000,2.000000
14099,2026-07-29T17:09:32.967+08:00,920,1.840000,0,990,6,1001,2,-10.000000,6.000000,1.000000,2.000000
14100,2026-07-29T17:09:32.967+08:00,921,1.842000,0,997,6,1003,2,-3.000000,6.000000,3.000000,2.000000
14101,2026-07-29T17:09:32.967+08:00,922,1.844000,0,1010,6,1000,2,10.000000,6.000000,0.000000,2.000000
14102,2026-07-29T17:09:32.967+08:00,923,1.846000,0,1013,8,996,2,13.000000,8.000000,-4.000000,2.000000
14103,2026-07-29T17:09:32.988+08:00,924,1.848000,0,1001,6,997,2,1.000000,6.000000,-3.000000,2.000000
14104,2026-07-29T17:09:32.988+08:00,925,1.850000,0,985,8,1002,2,-15.000000,8.000000,2.000000,2.000000
14105,2026-07-29T17:09:32.988+08:00,926,1.852000,0,983,8,1004,2,-17.000000,8.000000,4.000000,2.000000
14106,2026-07-29T17:09:33.006+08:00,927,1.854000,0,999,8,1000,2,-1.000000,8.000000,0.000000,2.000000
14107,2026-07-29T17:09:33.006+08:00,928,1.856000,0,1014,8,995,2,14.000000,8.000000,-5.000000,2.000000
14108,2026-07-29T17:09:33.006+08:00,929,1.858000,0,1012,8,996,2,12.000000,8.000000,-4.000000,2.000000
14109,2026-07-29T17:09:33.006+08:00,930,1.860000,0,997,8,1001,2,-3.000000,8.000000,1.000000,2.000000
14110,2026-07-29T17:09:33.006+08:00,931,1.862000,0,988,8,1003,2,-12.000000,8.000000,3.000000,2.000000
14111,2026-07-29T17:09:33.006+08:00,932,1.864000,0,993,8,1001,2,-7.000000,8.000000,1.000000,2.000000
14112,2026-07-29T17:09:33.006+08:00,933,1.866000,0,1004,8,998,2,4.000000,8.000000,-2.000000,2.000000
14113,2026-07-29T17:09:33.006+08:00,934,1.868000,0,1007,8,999,2,7.000000,8.000000,-1.000000,2.000000
14114,2026-07-29T17:09:33.006+08:00,935,1.870000,0,1001,8,1000,2,1.000000,8.000000,0.000000,2.000000
14115,2026-07-29T17:09:33.006+08:00,936,1.872000,0,995,8,1000,2,-5.000000,8.000000,0.000000,2.000000
14116,2026-07-29T17:09:33.006+08:00,937,1.874000,0,996,8,998,2,-4.000000,8.000000,-2.000000,2.000000
14117,2026-07-29T17:09:33.006+08:00,938,1.876000,0,1001,8,998,2,1.000000,8.000000,-2.000000,2.000000
14118,2026-07-29T17:09:33.006+08:00,939,1.878000,0,1002,8,1000,2,2.000000,8.000000,0.000000,2.000000
14119,2026-07-29T17:09:33.007+08:00,940,1.880000,0,998,8,1002,2,-2.000000,8.000000,2.000000,2.000000
14120,2026-07-29T17:09:33.007+08:00,941,1.882000,0,994,8,1001,2,-6.000000,8.000000,1.000000,2.000000
14121,2026-07-29T17:09:33.007+08:00,942,1.884000,0,998,8,1000,2,-2.000000,8.000000,0.000000,2.000000
14122,2026-07-29T17:09:33.027+08:00,943,1.886000,0,998,8,1001,2,-2.000000,8.000000,1.000000,2.000000
14123,2026-07-29T17:09:33.027+08:00,944,1.888000,0,992,8,1003,2,-8.000000,8.000000,3.000000,2.000000
14124,2026-07-29T17:09:33.027+08:00,945,1.890000,0,990,8,1001,2,-10.000000,8.000000,1.000000,2.000000
14125,2026-07-29T17:09:33.027+08:00,946,1.892000,0,996,8,998,2,-4.000000,8.000000,-2.000000,2.000000
14126,2026-07-29T17:09:33.027+08:00,947,1.894000,0,1006,8,996,2,6.000000,8.000000,-4.000000,2.000000
14127,2026-07-29T17:09:33.027+08:00,948,1.896000,0,1013,8,999,2,13.000000,8.000000,-1.000000,2.000000
14128,2026-07-29T17:09:33.031+08:00,949,1.898000,0,1008,8,1002,2,8.000000,8.000000,2.000000,2.000000
14129,2026-07-29T17:09:33.031+08:00,950,1.900000,0,994,8,1002,2,-6.000000,8.000000,2.000000,2.000000
14130,2026-07-29T17:09:33.031+08:00,951,1.902000,0,984,8,997,2,-16.000000,8.000000,-3.000000,2.000000
14131,2026-07-29T17:09:33.039+08:00,952,1.904000,0,989,8,996,2,-11.000000,8.000000,-4.000000,2.000000
14132,2026-07-29T17:09:33.039+08:00,953,1.906000,0,1005,8,1001,2,5.000000,8.000000,1.000000,2.000000
14133,2026-07-29T17:09:33.039+08:00,954,1.908000,0,991,8,995,2,-9.000000,8.000000,-5.000000,2.000000
14134,2026-07-29T17:09:33.039+08:00,955,1.910000,0,983,8,994,2,-17.000000,8.000000,-6.000000,2.000000
14135,2026-07-29T17:09:33.083+08:00,956,1.912000,0,994,8,1000,2,-6.000000,8.000000,0.000000,2.000000
14136,2026-07-29T17:09:33.083+08:00,957,1.914000,0,1009,8,1004,2,9.000000,8.000000,4.000000,2.000000
14137,2026-07-29T17:09:33.083+08:00,958,1.916000,0,1011,8,1002,2,11.000000,8.000000,2.000000,2.000000
14138,2026-07-29T17:09:33.087+08:00,959,1.918000,0,1002,8,998,2,2.000000,8.000000,-2.000000,2.000000
14139,2026-07-29T17:09:33.087+08:00,960,1.920000,0,997,8,997,2,-3.000000,8.000000,-3.000000,2.000000
14140,2026-07-29T17:09:33.087+08:00,961,1.922000,0,999,8,1000,2,-1.000000,8.000000,0.000000,2.000000
14141,2026-07-29T17:09:33.089+08:00,962,1.924000,0,996,8,1001,2,-4.000000,8.000000,1.000000,2.000000
14142,2026-07-29T17:09:33.089+08:00,963,1.926000,0,989,8,1000,2,-11.000000,8.000000,0.000000,2.000000
14143,2026-07-29T17:09:33.089+08:00,964,1.928000,0,990,8,999,2,-10.000000,8.000000,-1.000000,2.000000
14144,2026-07-29T17:09:33.102+08:00,965,1.930000,0,1006,8,998,2,6.000000,8.000000,-2.000000,2.000000
14145,2026-07-29T17:09:33.102+08:00,966,1.932000,0,1021,8,999,2,21.000000,8.000000,-1.000000,2.000000
14146,2026-07-29T17:09:33.102+08:00,967,1.934000,0,1012,10,1001,2,12.000000,10.000000,1.000000,2.000000
14147,2026-07-29T17:09:33.102+08:00,968,1.936000,0,1002,10,999,2,2.000000,10.000000,-1.000000,2.000000
14148,2026-07-29T17:09:33.102+08:00,969,1.938000,0,992,10,1003,2,-8.000000,10.000000,3.000000,2.000000
14149,2026-07-29T17:09:33.102+08:00,970,1.940000,0,1002,10,1002,2,2.000000,10.000000,2.000000,2.000000
14150,2026-07-29T17:09:33.102+08:00,971,1.942000,0,1017,10,999,2,17.000000,10.000000,-1.000000,2.000000
14151,2026-07-29T17:09:33.102+08:00,972,1.944000,0,1008,10,997,2,8.000000,10.000000,-3.000000,2.000000
14152,2026-07-29T17:09:33.102+08:00,973,1.946000,0,981,10,1000,2,-19.000000,10.000000,0.000000,2.000000
14153,2026-07-29T17:09:33.107+08:00,974,1.948000,0,974,10,1002,2,-26.000000,10.000000,2.000000,2.000000
14154,2026-07-29T17:09:33.107+08:00,975,1.950000,0,1001,10,1000,2,1.000000,10.000000,0.000000,2.000000
14155,2026-07-29T17:09:33.107+08:00,976,1.952000,0,1027,12,995,2,27.000000,12.000000,-5.000000,2.000000
14156,2026-07-29T17:09:33.113+08:00,977,1.954000,0,1020,12,996,2,20.000000,12.000000,-4.000000,2.000000
14157,2026-07-29T17:09:33.113+08:00,978,1.956000,0,986,12,1003,2,-14.000000,12.000000,3.000000,2.000000
14158,2026-07-29T17:09:33.113+08:00,979,1.958000,0,1006,12,995,2,6.000000,12.000000,-5.000000,2.000000
14159,2026-07-29T17:09:33.152+08:00,980,1.960000,0,1014,12,992,2,14.000000,12.000000,-8.000000,2.000000
14160,2026-07-29T17:09:33.152+08:00,981,1.962000,0,1008,12,997,2,8.000000,12.000000,-3.000000,2.000000
14161,2026-07-29T17:09:33.152+08:00,982,1.964000,0,1002,12,1005,2,2.000000,12.000000,5.000000,2.000000
14162,2026-07-29T17:09:33.152+08:00,983,1.966000,0,1000,12,1007,2,0.000000,12.000000,7.000000,2.000000
14163,2026-07-29T17:09:33.152+08:00,984,1.968000,0,992,12,1001,2,-8.000000,12.000000,1.000000,2.000000
14164,2026-07-29T17:09:33.152+08:00,985,1.970000,0,982,12,994,2,-18.000000,12.000000,-6.000000,2.000000
14165,2026-07-29T17:09:33.152+08:00,986,1.972000,0,988,12,993,2,-12.000000,12.000000,-7.000000,2.000000
14166,2026-07-29T17:09:33.152+08:00,987,1.974000,0,1012,14,999,2,12.000000,14.000000,-1.000000,2.000000
14167,2026-07-29T17:09:33.152+08:00,988,1.976000,0,1029,14,1005,2,29.000000,14.000000,5.000000,2.000000
14168,2026-07-29T17:09:33.152+08:00,989,1.978000,0,1013,14,1004,2,13.000000,14.000000,4.000000,2.000000
14169,2026-07-29T17:09:33.152+08:00,990,1.980000,0,978,14,999,2,-22.000000,14.000000,-1.000000,2.000000
14170,2026-07-29T17:09:33.152+08:00,991,1.982000,0,968,14,994,2,-32.000000,14.000000,-6.000000,2.000000
14171,2026-07-29T17:09:33.152+08:00,992,1.984000,0,994,14,996,2,-6.000000,14.000000,-4.000000,2.000000
14172,2026-07-29T17:09:33.155+08:00,993,1.986000,0,1024,14,1002,2,24.000000,14.000000,2.000000,2.000000
14173,2026-07-29T17:09:33.155+08:00,994,1.988000,0,1022,14,1004,2,22.000000,14.000000,4.000000,2.000000
14174,2026-07-29T17:09:33.155+08:00,995,1.990000,0,995,14,1001,2,-5.000000,14.000000,1.000000,2.000000
14175,2026-07-29T17:09:33.155+08:00,996,1.992000,0,981,16,996,2,-19.000000,16.000000,-4.000000,2.000000
14176,2026-07-29T17:09:33.159+08:00,997,1.994000,0,994,16,996,2,-6.000000,16.000000,-4.000000,2.000000
14177,2026-07-29T17:09:33.159+08:00,998,1.996000,0,1009,16,999,2,9.000000,16.000000,-1.000000,2.000000
14178,2026-07-29T17:09:33.159+08:00,999,1.998000,0,1003,16,1002,2,3.000000,16.000000,2.000000,2.000000
14179,2026-07-29T17:09:33.161+08:00,1000,2.000000,0,990,16,1001,2,-10.000000,16.000000,1.000000,2.000000
14180,2026-07-29T17:09:33.161+08:00,1001,2.002000,0,994,16,1001,2,-6.000000,16.000000,1.000000,2.000000
14181,2026-07-29T17:09:33.161+08:00,1002,2.004000,0,1012,16,1000,2,12.000000,16.000000,0.000000,2.000000
14182,2026-07-29T17:09:33.164+08:00,1003,2.006000,0,1015,16,997,2,15.000000,16.000000,-3.000000,2.000000
14183,2026-07-29T17:09:33.164+08:00,1004,2.008000,0,995,16,996,2,-5.000000,16.000000,-4.000000,2.000000
14184,2026-07-29T17:09:33.164+08:00,1005,2.010000,0,979,16,998,2,-21.000000,16.000000,-2.000000,2.000000
14185,2026-07-29T17:09:33.166+08:00,1006,2.012000,0,990,16,1003,2,-10.000000,16.000000,3.000000,2.000000
14186,2026-07-29T17:09:33.166+08:00,1007,2.014000,0,1014,16,1006,2,14.000000,16.000000,6.000000,2.000000
14187,2026-07-29T17:09:33.166+08:00,1008,2.016000,0,1018,16,1001,2,18.000000,16.000000,1.000000,2.000000
14188,2026-07-29T17:09:33.172+08:00,1009,2.018000,1,997,18,1000,2,-3.000000,18.000000,0.000000,2.000000
14189,2026-07-29T17:09:33.172+08:00,1010,2.020000,1,969,18,1001,2,-31.000000,18.000000,1.000000,2.000000
14190,2026-07-29T17:09:33.172+08:00,1011,2.022000,1,977,18,1002,2,-23.000000,18.000000,2.000000,2.000000
14191,2026-07-29T17:09:33.181+08:00,1012,2.024000,1,1014,18,1001,2,14.000000,18.000000,1.000000,2.000000
14192,2026-07-29T17:09:33.181+08:00,1013,2.026000,1,1038,18,997,2,38.000000,18.000000,-3.000000,2.000000
14193,2026-07-29T17:09:33.181+08:00,1014,2.028000,1,1018,18,996,4,18.000000,18.000000,-4.000000,4.000000
14194,2026-07-29T17:09:33.181+08:00,1015,2.030000,1,976,20,998,4,-24.000000,20.000000,-2.000000,4.000000
14195,2026-07-29T17:09:33.181+08:00,1016,2.032000,1,959,20,1002,4,-41.000000,20.000000,2.000000,4.000000
14196,2026-07-29T17:09:33.181+08:00,1017,2.034000,1,988,20,1003,4,-12.000000,20.000000,3.000000,4.000000
14197,2026-07-29T17:09:33.181+08:00,1018,2.036000,1,1027,20,1000,4,27.000000,20.000000,0.000000,4.000000
14198,2026-07-29T17:09:33.181+08:00,1019,2.038000,1,1032,20,997,4,32.000000,20.000000,-3.000000,4.000000
14199,2026-07-29T17:09:33.181+08:00,1020,2.040000,1,1000,20,997,4,0.000000,20.000000,-3.000000,4.000000
14200,2026-07-29T17:09:33.194+08:00,1021,2.042000,1,974,22,999,4,-26.000000,22.000000,-1.000000,4.000000
14201,2026-07-29T17:09:33.194+08:00,1022,2.044000,1,985,22,1001,4,-15.000000,22.000000,1.000000,4.000000
14202,2026-07-29T17:09:33.194+08:00,1023,2.046000,1,1012,22,1001,4,12.000000,22.000000,1.000000,4.000000
14203,2026-07-29T17:09:33.194+08:00,1024,2.048000,1,1017,22,1000,4,17.000000,22.000000,0.000000,4.000000
14204,2026-07-29T17:09:33.194+08:00,1025,2.050000,1,996,22,1000,2,-4.000000,22.000000,0.000000,2.000000
14205,2026-07-29T17:09:33.194+08:00,1026,2.052000,1,984,22,998,2,-16.000000,22.000000,-2.000000,2.000000
14206,2026-07-29T17:09:33.194+08:00,1027,2.054000,1,998,22,997,2,-2.000000,22.000000,-3.000000,2.000000
14207,2026-07-29T17:09:33.194+08:00,1028,2.056000,1,1012,22,999,2,12.000000,22.000000,-1.000000,2.000000
14208,2026-07-29T17:09:33.234+08:00,1029,2.058000,1,1019,22,995,2,19.000000,22.000000,-5.000000,2.000000
14209,2026-07-29T17:09:33.234+08:00,1030,2.060000,1,1019,22,996,2,19.000000,22.000000,-4.000000,2.000000
14210,2026-07-29T17:09:33.234+08:00,1031,2.062000,1,988,22,1001,2,-12.000000,22.000000,1.000000,2.000000
14211,2026-07-29T17:09:33.234+08:00,1032,2.064000,1,967,22,1004,2,-33.000000,22.000000,4.000000,2.000000
14212,2026-07-29T17:09:33.234+08:00,1033,2.066000,1,987,22,1003,2,-13.000000,22.000000,3.000000,2.000000
14213,2026-07-29T17:09:33.234+08:00,1034,2.068000,1,1024,22,997,2,24.000000,22.000000,-3.000000,2.000000
14214,2026-07-29T17:09:33.234+08:00,1035,2.070000,1,1029,22,995,2,29.000000,22.000000,-5.000000,2.000000
14215,2026-07-29T17:09:33.234+08:00,1036,2.072000,1,997,22,998,2,-3.000000,22.000000,-2.000000,2.000000
14216,2026-07-29T17:09:33.234+08:00,1037,2.074000,1,971,24,1002,4,-29.000000,24.000000,2.000000,4.000000
14217,2026-07-29T17:09:33.234+08:00,1038,2.076000,1,986,24,1003,4,-14.000000,24.000000,3.000000,4.000000
14218,2026-07-29T17:09:33.234+08:00,1039,2.078000,1,1019,24,1000,4,19.000000,24.000000,0.000000,4.000000
14219,2026-07-29T17:09:33.236+08:00,1040,2.080000,1,1023,24,998,4,23.000000,24.000000,-2.000000,4.000000
14220,2026-07-29T17:09:33.236+08:00,1041,2.082000,1,993,24,998,4,-7.000000,24.000000,-2.000000,4.000000
14221,2026-07-29T17:09:33.236+08:00,1042,2.084000,1,972,24,1000,4,-28.000000,24.000000,0.000000,4.000000
14222,2026-07-29T17:09:33.239+08:00,1043,2.086000,1,990,24,1002,4,-10.000000,24.000000,2.000000,4.000000
14223,2026-07-29T17:09:33.239+08:00,1044,2.088000,1,1023,24,1001,4,23.000000,24.000000,1.000000,4.000000
14224,2026-07-29T17:09:33.239+08:00,1045,2.090000,1,1021,24,998,4,21.000000,24.000000,-2.000000,4.000000
14225,2026-07-29T17:09:33.240+08:00,1046,2.092000,1,983,26,997,4,-17.000000,26.000000,-3.000000,4.000000
14226,2026-07-29T17:09:33.246+08:00,1047,2.094000,1,962,26,999,4,-38.000000,26.000000,-1.000000,4.000000
14227,2026-07-29T17:09:33.246+08:00,1048,2.096000,1,998,26,1002,4,-2.000000,26.000000,2.000000,4.000000
14228,2026-07-29T17:09:33.246+08:00,1049,2.098000,1,1050,26,1003,4,50.000000,26.000000,3.000000,4.000000
14229,2026-07-29T17:09:33.257+08:00,1050,2.100000,1,1040,26,1001,4,40.000000,26.000000,1.000000,4.000000
14230,2026-07-29T17:09:33.257+08:00,1051,2.102000,1,968,28,998,4,-32.000000,28.000000,-2.000000,4.000000
14231,2026-07-29T17:09:33.257+08:00,1052,2.104000,1,928,28,995,4,-72.000000,28.000000,-5.000000,4.000000
14232,2026-07-29T17:09:33.257+08:00,1053,2.106000,1,978,28,996,4,-22.000000,28.000000,-4.000000,4.000000
14233,2026-07-29T17:09:33.257+08:00,1054,2.108000,1,1057,30,1001,4,57.000000,30.000000,1.000000,4.000000
14234,2026-07-29T17:09:33.257+08:00,1055,2.110000,1,1063,30,1004,4,63.000000,30.000000,4.000000,4.000000
14235,2026-07-29T17:09:33.257+08:00,1056,2.112000,1,991,30,1002,4,-9.000000,30.000000,2.000000,4.000000
14236,2026-07-29T17:09:33.289+08:00,1057,2.114000,1,936,30,998,4,-64.000000,30.000000,-2.000000,4.000000
14237,2026-07-29T17:09:33.289+08:00,1058,2.116000,1,964,32,997,4,-36.000000,32.000000,-3.000000,4.000000
14238,2026-07-29T17:09:33.289+08:00,1059,2.118000,1,1032,32,998,4,32.000000,32.000000,-2.000000,4.000000
14239,2026-07-29T17:09:33.289+08:00,1060,2.120000,1,1052,32,999,4,52.000000,32.000000,-1.000000,4.000000
14240,2026-07-29T17:09:33.289+08:00,1061,2.122000,1,1004,32,1000,4,4.000000,32.000000,0.000000,4.000000
14241,2026-07-29T17:09:33.289+08:00,1062,2.124000,1,956,32,1001,4,-44.000000,32.000000,1.000000,4.000000
14242,2026-07-29T17:09:33.289+08:00,1063,2.126000,1,966,34,1001,2,-34.000000,34.000000,1.000000,2.000000
14243,2026-07-29T17:09:33.289+08:00,1064,2.128000,1,1015,34,1000,2,15.000000,34.000000,0.000000,2.000000
14244,2026-07-29T17:09:33.289+08:00,1065,2.130000,1,1040,34,999,2,40.000000,34.000000,-1.000000,2.000000
14245,2026-07-29T17:09:33.289+08:00,1066,2.132000,1,1016,34,998,2,16.000000,34.000000,-2.000000,2.000000
14246,2026-07-29T17:09:33.289+08:00,1067,2.134000,1,978,34,997,2,-22.000000,34.000000,-3.000000,2.000000
14247,2026-07-29T17:09:33.289+08:00,1068,2.136000,1,969,34,998,2,-31.000000,34.000000,-2.000000,2.000000
14248,2026-07-29T17:09:33.306+08:00,1069,2.138000,1,989,34,1002,2,-11.000000,34.000000,2.000000,2.000000
14249,2026-07-29T17:09:33.306+08:00,1070,2.140000,1,1014,34,1004,2,14.000000,34.000000,4.000000,2.000000
14250,2026-07-29T17:09:33.306+08:00,1071,2.142000,1,1026,36,1001,2,26.000000,36.000000,1.000000,2.000000
14251,2026-07-29T17:09:33.306+08:00,1072,2.144000,1,1020,36,997,2,20.000000,36.000000,-3.000000,2.000000
14252,2026-07-29T17:09:33.306+08:00,1073,2.146000,1,994,36,995,4,-6.000000,36.000000,-5.000000,4.000000
14253,2026-07-29T17:09:33.306+08:00,1074,2.148000,1,965,36,998,4,-35.000000,36.000000,-2.000000,4.000000
14254,2026-07-29T17:09:33.306+08:00,1075,2.150000,1,966,36,1002,4,-34.000000,36.000000,2.000000,4.000000
14255,2026-07-29T17:09:33.306+08:00,1076,2.152000,1,1004,36,1003,4,4.000000,36.000000,3.000000,4.000000
14256,2026-07-29T17:09:33.306+08:00,1077,2.154000,1,1042,36,1000,4,42.000000,36.000000,0.000000,4.000000
14257,2026-07-29T17:09:33.306+08:00,1078,2.156000,1,1040,36,997,4,40.000000,36.000000,-3.000000,4.000000
14258,2026-07-29T17:09:33.309+08:00,1079,2.158000,1,995,36,997,4,-5.000000,36.000000,-3.000000,4.000000
14259,2026-07-29T17:09:33.309+08:00,1080,2.160000,1,954,38,1000,4,-46.000000,38.000000,0.000000,4.000000
14260,2026-07-29T17:09:33.309+08:00,1081,2.162000,1,958,38,1001,4,-42.000000,38.000000,1.000000,4.000000
14261,2026-07-29T17:09:33.313+08:00,1082,2.164000,1,1004,38,1000,2,4.000000,38.000000,0.000000,2.000000
14262,2026-07-29T17:09:33.313+08:00,1083,2.166000,1,1047,38,998,2,47.000000,38.000000,-2.000000,2.000000
14263,2026-07-29T17:09:33.313+08:00,1084,2.168000,1,1041,38,999,2,41.000000,38.000000,-1.000000,2.000000
14264,2026-07-29T17:09:33.314+08:00,1085,2.170000,1,991,38,1001,2,-9.000000,38.000000,1.000000,2.000000
14265,2026-07-29T17:09:33.314+08:00,1086,2.172000,1,949,40,1001,2,-51.000000,40.000000,1.000000,2.000000
14266,2026-07-29T17:09:33.314+08:00,1087,2.174000,1,961,40,999,2,-39.000000,40.000000,-1.000000,2.000000
14267,2026-07-29T17:09:33.318+08:00,1088,2.176000,1,1013,40,998,2,13.000000,40.000000,-2.000000,2.000000
14268,2026-07-29T17:09:33.318+08:00,1089,2.178000,1,1047,40,1000,2,47.000000,40.000000,0.000000,2.000000
14269,2026-07-29T17:09:33.318+08:00,1090,2.180000,1,1028,40,1001,2,28.000000,40.000000,1.000000,2.000000
14270,2026-07-29T17:09:33.321+08:00,1091,2.182000,1,983,40,999,2,-17.000000,40.000000,-1.000000,2.000000
14271,2026-07-29T17:09:33.321+08:00,1092,2.184000,1,966,40,997,2,-34.000000,40.000000,-3.000000,2.000000
14272,2026-07-29T17:09:33.345+08:00,1093,2.186000,1,990,40,999,2,-10.000000,40.000000,-1.000000,2.000000
14273,2026-07-29T17:09:33.383+08:00,1094,2.188000,1,986,40,995,2,-14.000000,40.000000,-5.000000,2.000000
14274,2026-07-29T17:09:33.383+08:00,1095,2.190000,1,1006,40,997,2,6.000000,40.000000,-3.000000,2.000000
14275,2026-07-29T17:09:33.383+08:00,1096,2.192000,1,1024,40,1002,2,24.000000,40.000000,2.000000,2.000000
14276,2026-07-29T17:09:33.383+08:00,1097,2.194000,1,1015,40,1003,2,15.000000,40.000000,3.000000,2.000000
14277,2026-07-29T17:09:33.383+08:00,1098,2.196000,1,984,40,1000,2,-16.000000,40.000000,0.000000,2.000000
14278,2026-07-29T17:09:33.383+08:00,1099,2.198000,1,967,42,996,2,-33.000000,42.000000,-4.000000,2.000000
14279,2026-07-29T17:09:33.383+08:00,1100,2.200000,1,985,40,998,2,-15.000000,40.000000,-2.000000,2.000000
14280,2026-07-29T17:09:33.383+08:00,1101,2.202000,1,1017,42,1002,2,17.000000,42.000000,2.000000,2.000000
14281,2026-07-29T17:09:33.383+08:00,1102,2.204000,1,1024,42,1002,2,24.000000,42.000000,2.000000,2.000000
14282,2026-07-29T17:09:33.384+08:00,1103,2.206000,1,1005,40,998,2,5.000000,40.000000,-2.000000,2.000000
14283,2026-07-29T17:09:33.384+08:00,1104,2.208000,1,989,40,995,2,-11.000000,40.000000,-5.000000,2.000000
14284,2026-07-29T17:09:33.384+08:00,1105,2.210000,1,993,40,997,2,-7.000000,40.000000,-3.000000,2.000000
14285,2026-07-29T17:09:33.384+08:00,1106,2.212000,1,1002,40,1002,2,2.000000,40.000000,2.000000,2.000000
14286,2026-07-29T17:09:33.384+08:00,1107,2.214000,1,1002,40,1004,2,2.000000,40.000000,4.000000,2.000000
14287,2026-07-29T17:09:33.384+08:00,1108,2.216000,1,995,40,1001,2,-5.000000,40.000000,1.000000,2.000000
14288,2026-07-29T17:09:33.384+08:00,1109,2.218000,1,994,40,998,2,-6.000000,40.000000,-2.000000,2.000000
14289,2026-07-29T17:09:33.384+08:00,1110,2.220000,1,998,40,997,2,-2.000000,40.000000,-3.000000,2.000000
14290,2026-07-29T17:09:33.384+08:00,1111,2.222000,1,1005,40,998,2,5.000000,40.000000,-2.000000,2.000000
14291,2026-07-29T17:09:33.384+08:00,1112,2.224000,1,1009,40,1000,2,9.000000,40.000000,0.000000,2.000000
14292,2026-07-29T17:09:33.384+08:00,1113,2.226000,1,1007,40,1001,2,7.000000,40.000000,1.000000,2.000000
14293,2026-07-29T17:09:33.384+08:00,1114,2.228000,1,995,40,1002,2,-5.000000,40.000000,2.000000,2.000000
14294,2026-07-29T17:09:33.384+08:00,1115,2.230000,1,984,40,1001,2,-16.000000,40.000000,1.000000,2.000000
14295,2026-07-29T17:09:33.387+08:00,1116,2.232000,1,988,40,999,2,-12.000000,40.000000,-1.000000,2.000000
14296,2026-07-29T17:09:33.387+08:00,1117,2.234000,1,1003,40,997,2,3.000000,40.000000,-3.000000,2.000000
14297,2026-07-29T17:09:33.387+08:00,1118,2.236000,1,1013,40,998,2,13.000000,40.000000,-2.000000,2.000000
14298,2026-07-29T17:09:33.390+08:00,1119,2.238000,1,1011,40,1000,2,11.000000,40.000000,0.000000,2.000000
14299,2026-07-29T17:09:33.390+08:00,1120,2.240000,1,1006,40,1002,2,6.000000,40.000000,2.000000,2.000000
14300,2026-07-29T17:09:33.390+08:00,1121,2.242000,1,1002,40,1001,2,2.000000,40.000000,1.000000,2.000000
14301,2026-07-29T17:09:33.392+08:00,1122,2.244000,1,988,40,1000,2,-12.000000,40.000000,0.000000,2.000000
14302,2026-07-29T17:09:33.392+08:00,1123,2.246000,1,969,40,998,2,-31.000000,40.000000,-2.000000,2.000000
14303,2026-07-29T17:09:33.392+08:00,1124,2.248000,1,974,40,997,2,-26.000000,40.000000,-3.000000,2.000000
14304,2026-07-29T17:09:33.396+08:00,1125,2.250000,1,1018,40,999,2,18.000000,40.000000,-1.000000,2.000000
14305,2026-07-29T17:09:33.396+08:00,1126,2.252000,1,1062,40,1001,2,62.000000,40.000000,1.000000,2.000000
14306,2026-07-29T17:09:33.396+08:00,1127,2.254000,1,1042,40,1001,2,42.000000,40.000000,1.000000,2.000000
14307,2026-07-29T17:09:33.453+08:00,1128,2.256000,1,1073,44,1001,2,73.000000,44.000000,1.000000,2.000000
14308,2026-07-29T17:09:33.453+08:00,1129,2.258000,1,1098,44,1000,2,98.000000,44.000000,0.000000,2.000000
14309,2026-07-29T17:09:33.453+08:00,1130,2.260000,1,999,44,997,2,-1.000000,44.000000,-3.000000,2.000000
14310,2026-07-29T17:09:33.453+08:00,1131,2.262000,1,901,46,997,2,-99.000000,46.000000,-3.000000,2.000000
14311,2026-07-29T17:09:33.453+08:00,1132,2.264000,1,928,46,1000,2,-72.000000,46.000000,0.000000,2.000000
14312,2026-07-29T17:09:33.453+08:00,1133,2.266000,1,1037,46,1003,2,37.000000,46.000000,3.000000,2.000000
14313,2026-07-29T17:09:33.453+08:00,1134,2.268000,1,1087,48,1002,2,87.000000,48.000000,2.000000,2.000000
14314,2026-07-29T17:09:33.453+08:00,1135,2.270000,1,1030,48,999,2,30.000000,48.000000,-1.000000,2.000000
14315,2026-07-29T17:09:33.453+08:00,1136,2.272000,1,955,48,995,2,-45.000000,48.000000,-5.000000,2.000000
14316,2026-07-29T17:09:33.453+08:00,1137,2.274000,1,950,48,995,2,-50.000000,48.000000,-5.000000,2.000000
14317,2026-07-29T17:09:33.453+08:00,1138,2.276000,1,995,48,1001,2,-5.000000,48.000000,1.000000,2.000000
14318,2026-07-29T17:09:33.453+08:00,1139,2.278000,1,1019,48,1006,2,19.000000,48.000000,6.000000,2.000000
14319,2026-07-29T17:09:33.453+08:00,1140,2.280000,1,1007,48,1004,2,7.000000,48.000000,4.000000,2.000000
14320,2026-07-29T17:09:33.453+08:00,1141,2.282000,1,1000,48,997,2,0.000000,48.000000,-3.000000,2.000000
14321,2026-07-29T17:09:33.453+08:00,1142,2.284000,1,1016,48,992,2,16.000000,48.000000,-8.000000,2.000000
14322,2026-07-29T17:09:33.453+08:00,1143,2.286000,1,1019,48,995,2,19.000000,48.000000,-5.000000,2.000000
14323,2026-07-29T17:09:33.453+08:00,1144,2.288000,1,985,48,1003,2,-15.000000,48.000000,3.000000,2.000000
14324,2026-07-29T17:09:33.453+08:00,1145,2.290000,1,953,48,1007,2,-47.000000,48.000000,7.000000,2.000000
14325,2026-07-29T17:09:33.491+08:00,1146,2.292000,1,972,48,1002,2,-28.000000,48.000000,2.000000,2.000000
14326,2026-07-29T17:09:33.491+08:00,1147,2.294000,1,1033,50,995,2,33.000000,50.000000,-5.000000,2.000000
14327,2026-07-29T17:09:33.491+08:00,1148,2.296000,1,1063,50,994,2,63.000000,50.000000,-6.000000,2.000000
14328,2026-07-29T17:09:33.491+08:00,1149,2.298000,1,1018,50,1000,2,18.000000,50.000000,0.000000,2.000000
14329,2026-07-29T17:09:33.493+08:00,1150,2.300000,1,948,50,1004,2,-52.000000,50.000000,4.000000,2.000000
14330,2026-07-29T17:09:33.493+08:00,1151,2.302000,1,941,52,1003,2,-59.000000,52.000000,3.000000,2.000000
14331,2026-07-29T17:09:33.493+08:00,1152,2.304000,1,1002,52,998,2,2.000000,52.000000,-2.000000,2.000000
14332,2026-07-29T17:09:33.507+08:00,1153,2.306000,1,1052,52,997,2,52.000000,52.000000,-3.000000,2.000000
14333,2026-07-29T17:09:33.507+08:00,1154,2.308000,1,1032,52,998,2,32.000000,52.000000,-2.000000,2.000000
14334,2026-07-29T17:09:33.507+08:00,1155,2.310000,1,980,52,999,2,-20.000000,52.000000,-1.000000,2.000000
14335,2026-07-29T17:09:33.507+08:00,1156,2.312000,1,968,52,1001,2,-32.000000,52.000000,1.000000,2.000000
14336,2026-07-29T17:09:33.507+08:00,1157,2.314000,1,998,52,1002,2,-2.000000,52.000000,2.000000,2.000000
14337,2026-07-29T17:09:33.507+08:00,1158,2.316000,1,1017,52,1001,2,17.000000,52.000000,1.000000,2.000000
14338,2026-07-29T17:09:33.507+08:00,1159,2.318000,1,1001,52,999,2,1.000000,52.000000,-1.000000,2.000000
14339,2026-07-29T17:09:33.507+08:00,1160,2.320000,1,986,52,996,2,-14.000000,52.000000,-4.000000,2.000000
14340,2026-07-29T17:09:33.507+08:00,1161,2.322000,1,997,52,998,2,-3.000000,52.000000,-2.000000,2.000000
14341,2026-07-29T17:09:33.507+08:00,1162,2.324000,1,983,50,998,2,-17.000000,50.000000,-2.000000,2.000000
14342,2026-07-29T17:09:33.507+08:00,1163,2.326000,1,995,50,999,2,-5.000000,50.000000,-1.000000,2.000000
14343,2026-07-29T17:09:33.507+08:00,1164,2.328000,1,1006,50,1001,2,6.000000,50.000000,1.000000,2.000000
14344,2026-07-29T17:09:33.507+08:00,1165,2.330000,1,1005,50,1000,2,5.000000,50.000000,0.000000,2.000000
14345,2026-07-29T17:09:33.527+08:00,1166,2.332000,1,1001,50,997,2,1.000000,50.000000,-3.000000,2.000000
14346,2026-07-29T17:09:33.527+08:00,1167,2.334000,1,1004,50,998,2,4.000000,50.000000,-2.000000,2.000000
14347,2026-07-29T17:09:33.527+08:00,1168,2.336000,1,1005,50,1002,2,5.000000,50.000000,2.000000,2.000000
14348,2026-07-29T17:09:33.527+08:00,1169,2.338000,1,993,48,1003,2,-7.000000,48.000000,3.000000,2.000000
14349,2026-07-29T17:09:33.527+08:00,1170,2.340000,1,977,48,999,2,-23.000000,48.000000,-1.000000,2.000000
14350,2026-07-29T17:09:33.527+08:00,1171,2.342000,1,985,48,996,2,-15.000000,48.000000,-4.000000,2.000000
14351,2026-07-29T17:09:33.527+08:00,1172,2.344000,1,1021,48,998,2,21.000000,48.000000,-2.000000,2.000000
14352,2026-07-29T17:09:33.527+08:00,1173,2.346000,1,1043,48,1001,2,43.000000,48.000000,1.000000,2.000000
14353,2026-07-29T17:09:33.527+08:00,1174,2.348000,1,1011,46,1002,2,11.000000,46.000000,2.000000,2.000000
14354,2026-07-29T17:09:33.527+08:00,1175,2.350000,1,956,48,999,2,-44.000000,48.000000,-1.000000,2.000000
14355,2026-07-29T17:09:33.527+08:00,1176,2.352000,1,951,46,998,2,-49.000000,46.000000,-2.000000,2.000000
14356,2026-07-29T17:09:33.527+08:00,1177,2.354000,1,1006,46,999,2,6.000000,46.000000,-1.000000,2.000000
14357,2026-07-29T17:09:33.527+08:00,1178,2.356000,1,1050,46,1001,2,50.000000,46.000000,1.000000,2.000000
