frame_index,host_receive_time,recording_sample_index,recording_elapsed_s,button_label,Channel1_raw,Channel2_raw,Channel 3_raw,Channel 4_raw,Channel1_display,Channel2_display,Channel 3_display,Channel 4_display
38340,2026-07-30T09:26:59.191+08:00,0,0.000000,0,1021,34,1001,2,21.000000,34.000000,1.000000,2.000000
38341,2026-07-30T09:26:59.191+08:00,1,0.002000,0,1005,34,997,2,5.000000,34.000000,-3.000000,2.000000
38342,2026-07-30T09:26:59.191+08:00,2,0.004000,0,976,34,995,2,-24.000000,34.000000,-5.000000,2.000000
38343,2026-07-30T09:26:59.191+08:00,3,0.006000,0,969,34,998,2,-31.000000,34.000000,-2.000000,2.000000
38344,2026-07-30T09:26:59.191+08:00,4,0.008000,0,1001,34,1003,2,1.000000,34.000000,3.000000,2.000000
38345,2026-07-30T09:26:59.191+08:00,5,0.010000,0,1040,34,1004,2,40.000000,34.000000,4.000000,2.000000
38346,2026-07-30T09:26:59.199+08:00,6,0.012000,0,1035,34,1000,2,35.000000,34.000000,0.000000,2.000000
38347,2026-07-30T09:26:59.199+08:00,7,0.014000,0,985,34,995,2,-15.000000,34.000000,-5.000000,2.000000
38348,2026-07-30T09:26:59.199+08:00,8,0.016000,0,948,34,996,2,-52.000000,34.000000,-4.000000,2.000000
38349,2026-07-30T09:26:59.199+08:00,9,0.018000,0,970,36,1001,2,-30.000000,36.000000,1.000000,2.000000
38350,2026-07-30T09:26:59.199+08:00,10,0.020000,0,1026,36,1002,2,26.000000,36.000000,2.000000,2.000000
38351,2026-07-30T09:26:59.204+08:00,11,0.022000,0,1048,36,1000,2,48.000000,36.000000,0.000000,2.000000
38352,2026-07-30T09:26:59.204+08:00,12,0.024000,0,1014,36,998,2,14.000000,36.000000,-2.000000,2.000000
38353,2026-07-30T09:26:59.204+08:00,13,0.026000,0,973,36,998,2,-27.000000,36.000000,-2.000000,2.000000
38354,2026-07-30T09:26:59.204+08:00,14,0.028000,0,969,36,1000,2,-31.000000,36.000000,0.000000,2.000000
38355,2026-07-30T09:26:59.216+08:00,15,0.030000,0,992,36,1002,2,-8.000000,36.000000,2.000000,2.000000
38356,2026-07-30T09:26:59.216+08:00,16,0.032000,0,1008,36,1001,2,8.000000,36.000000,1.000000,2.000000
38357,2026-07-30T09:26:59.216+08:00,17,0.034000,0,1011,36,998,2,11.000000,36.000000,-2.000000,2.000000
38358,2026-07-30T09:26:59.216+08:00,18,0.036000,0,1014,36,997,2,14.000000,36.000000,-3.000000,2.000000
38359,2026-07-30T09:26:59.216+08:00,19,0.038000,0,1015,36,998,2,15.000000,36.000000,-2.000000,2.000000
38360,2026-07-30T09:26:59.216+08:00,20,0.040000,0,996,36,1001,2,-4.000000,36.000000,1.000000,2.000000
38361,2026-07-30T09:26:59.230+08:00,21,0.042000,0,969,36,1003,2,-31.000000,36.000000,3.000000,2.000000
38362,2026-07-30T09:26:59.230+08:00,22,0.044000,0,969,36,1001,2,-31.000000,36.000000,1.000000,2.000000
38363,2026-07-30T09:26:59.230+08:00,23,0.046000,0,1005,36,999,2,5.000000,36.000000,-1.000000,2.000000
38364,2026-07-30T09:26:59.230+08:00,24,0.048000,0,1040,36,997,2,40.000000,36.000000,-3.000000,2.000000
38365,2026-07-30T09:26:59.230+08:00,25,0.050000,0,1034,36,997,2,34.000000,36.000000,-3.000000,2.000000
38366,2026-07-30T09:26:59.230+08:00,26,0.052000,0,991,36,1000,2,-9.000000,36.000000,0.000000,2.000000
38367,2026-07-30T09:26:59.232+08:00,27,0.054000,0,958,36,1001,2,-42.000000,36.000000,1.000000,2.000000
38368,2026-07-30T09:26:59.232+08:00,28,0.056000,0,969,36,1001,2,-31.000000,36.000000,1.000000,2.000000
38369,2026-07-30T09:26:59.232+08:00,29,0.058000,0,1008,34,1000,2,8.000000,34.000000,0.000000,2.000000
38370,2026-07-30T09:26:59.243+08:00,30,0.060000,0,1033,36,999,2,33.000000,36.000000,-1.000000,2.000000
38371,2026-07-30T09:26:59.243+08:00,31,0.062000,0,1024,34,999,2,24.000000,34.000000,-1.000000,2.000000
38372,2026-07-30T09:26:59.243+08:00,32,0.064000,0,996,34,999,2,-4.000000,34.000000,-1.000000,2.000000
38373,2026-07-30T09:26:59.246+08:00,33,0.066000,0,976,34,999,2,-24.000000,34.000000,-1.000000,2.000000
38374,2026-07-30T09:26:59.246+08:00,34,0.068000,0,976,34,999,2,-24.000000,34.000000,-1.000000,2.000000
38375,2026-07-30T09:26:59.246+08:00,35,0.070000,0,996,34,1000,2,-4.000000,34.000000,0.000000,2.000000
38376,2026-07-30T09:26:59.250+08:00,36,0.072000,0,1020,32,1001,2,20.000000,32.000000,1.000000,2.000000
38377,2026-07-30T09:26:59.250+08:00,37,0.074000,0,1024,32,1000,2,24.000000,32.000000,0.000000,2.000000
38378,2026-07-30T09:26:59.258+08:00,38,0.076000,0,1002,32,998,2,2.000000,32.000000,-2.000000,2.000000
38379,2026-07-30T09:26:59.258+08:00,39,0.078000,0,979,32,998,2,-21.000000,32.000000,-2.000000,2.000000
38380,2026-07-30T09:26:59.258+08:00,40,0.080000,0,981,32,1000,2,-19.000000,32.000000,0.000000,2.000000
38381,2026-07-30T09:26:59.263+08:00,41,0.082000,0,1001,32,1002,2,1.000000,32.000000,2.000000,2.000000
38382,2026-07-30T09:26:59.263+08:00,42,0.084000,0,1013,32,1000,2,13.000000,32.000000,0.000000,2.000000
38383,2026-07-30T09:26:59.263+08:00,43,0.086000,0,1009,32,996,2,9.000000,32.000000,-4.000000,2.000000
38384,2026-07-30T09:26:59.263+08:00,44,0.088000,0,1000,32,996,2,0.000000,32.000000,-4.000000,2.000000
38385,2026-07-30T09:26:59.275+08:00,45,0.090000,0,996,32,1001,2,-4.000000,32.000000,1.000000,2.000000
38386,2026-07-30T09:26:59.275+08:00,46,0.092000,0,995,32,1006,2,-5.000000,32.000000,6.000000,2.000000
38387,2026-07-30T09:26:59.275+08:00,47,0.094000,0,997,32,1003,2,-3.000000,32.000000,3.000000,2.000000
38388,2026-07-30T09:26:59.296+08:00,48,0.096000,0,1000,32,995,2,0.000000,32.000000,-5.000000,2.000000
38389,2026-07-30T09:26:59.296+08:00,49,0.098000,0,1001,30,993,2,1.000000,30.000000,-7.000000,2.000000
38390,2026-07-30T09:26:59.296+08:00,50,0.100000,0,997,30,998,2,-3.000000,30.000000,-2.000000,2.000000
38391,2026-07-30T09:26:59.296+08:00,51,0.102000,0,996,30,1004,2,-4.000000,30.000000,4.000000,2.000000
38392,2026-07-30T09:26:59.296+08:00,52,0.104000,0,1007,30,1004,2,7.000000,30.000000,4.000000,2.000000
38393,2026-07-30T09:26:59.296+08:00,53,0.106000,0,1016,30,1000,2,16.000000,30.000000,0.000000,2.000000
38394,2026-07-30T09:26:59.296+08:00,54,0.108000,0,999,30,998,2,-1.000000,30.000000,-2.000000,2.000000
38395,2026-07-30T09:26:59.296+08:00,55,0.110000,0,972,30,997,2,-28.000000,30.000000,-3.000000,2.000000
38396,2026-07-30T09:26:59.296+08:00,56,0.112000,0,976,32,998,2,-24.000000,32.000000,-2.000000,2.000000
38397,2026-07-30T09:26:59.296+08:00,57,0.114000,0,1017,32,999,2,17.000000,32.000000,-1.000000,2.000000
38398,2026-07-30T09:26:59.296+08:00,58,0.116000,0,1044,32,1000,2,44.000000,32.000000,0.000000,2.000000
38399,2026-07-30T09:26:59.296+08:00,59,0.118000,0,1016,32,1000,2,16.000000,32.000000,0.000000,2.000000
38400,2026-07-30T09:26:59.303+08:00,60,0.120000,0,965,32,1001,2,-35.000000,32.000000,1.000000,2.000000
38401,2026-07-30T09:26:59.303+08:00,61,0.122000,0,957,32,1001,2,-43.000000,32.000000,1.000000,2.000000
38402,2026-07-30T09:26:59.303+08:00,62,0.124000,0,1000,32,1000,2,0.000000,32.000000,0.000000,2.000000
38403,2026-07-30T09:26:59.305+08:00,63,0.126000,0,1036,32,997,2,36.000000,32.000000,-3.000000,2.000000
38404,2026-07-30T09:26:59.305+08:00,64,0.128000,0,1021,32,996,2,21.000000,32.000000,-4.000000,2.000000
38405,2026-07-30T09:26:59.305+08:00,65,0.130000,0,983,32,998,2,-17.000000,32.000000,-2.000000,2.000000
38406,2026-07-30T09:26:59.310+08:00,66,0.132000,0,978,32,1002,2,-22.000000,32.000000,2.000000,2.000000
38407,2026-07-30T09:26:59.310+08:00,67,0.134000,0,1006,32,1003,2,6.000000,32.000000,3.000000,2.000000
38408,2026-07-30T09:26:59.318+08:00,68,0.136000,0,1022,32,1001,2,22.000000,32.000000,1.000000,2.000000
38409,2026-07-30T09:26:59.318+08:00,69,0.138000,0,1000,30,997,2,0.000000,30.000000,-3.000000,2.000000
38410,2026-07-30T09:26:59.318+08:00,70,0.140000,0,971,32,996,2,-29.000000,32.000000,-4.000000,2.000000
38411,2026-07-30T09:26:59.318+08:00,71,0.142000,0,977,32,1000,2,-23.000000,32.000000,0.000000,2.000000
38412,2026-07-30T09:26:59.322+08:00,72,0.144000,0,1018,32,1002,2,18.000000,32.000000,2.000000,2.000000
38413,2026-07-30T09:26:59.322+08:00,73,0.146000,0,1042,32,1000,2,42.000000,32.000000,0.000000,2.000000
38414,2026-07-30T09:26:59.322+08:00,74,0.148000,0,1015,32,998,2,15.000000,32.000000,-2.000000,2.000000
38415,2026-07-30T09:26:59.336+08:00,75,0.150000,0,967,32,999,2,-33.000000,32.000000,-1.000000,2.000000
38416,2026-07-30T09:26:59.336+08:00,76,0.152000,0,955,34,1002,2,-45.000000,34.000000,2.000000,2.000000
38417,2026-07-30T09:26:59.336+08:00,77,0.154000,0,995,32,1002,2,-5.000000,32.000000,2.000000,2.000000
38418,2026-07-30T09:26:59.336+08:00,78,0.156000,0,1037,34,998,2,37.000000,34.000000,-2.000000,2.000000
38419,2026-07-30T09:26:59.336+08:00,79,0.158000,0,1034,34,996,2,34.000000,34.000000,-4.000000,2.000000
38420,2026-07-30T09:26:59.336+08:00,80,0.160000,0,993,34,999,2,-7.000000,34.000000,-1.000000,2.000000
38421,2026-07-30T09:26:59.338+08:00,81,0.162000,0,966,34,1003,2,-34.000000,34.000000,3.000000,2.000000
38422,2026-07-30T09:26:59.338+08:00,82,0.164000,0,981,34,1003,2,-19.000000,34.000000,3.000000,2.000000
38423,2026-07-30T09:26:59.392+08:00,83,0.166000,0,1014,32,998,2,14.000000,32.000000,-2.000000,2.000000
38424,2026-07-30T09:26:59.392+08:00,84,0.168000,0,1021,34,996,2,21.000000,34.000000,-4.000000,2.000000
38425,2026-07-30T09:26:59.392+08:00,85,0.170000,0,1001,32,997,2,1.000000,32.000000,-3.000000,2.000000
38426,2026-07-30T09:26:59.392+08:00,86,0.172000,0,987,32,1001,2,-13.000000,32.000000,1.000000,2.000000
38427,2026-07-30T09:26:59.392+08:00,87,0.174000,0,994,32,1003,2,-6.000000,32.000000,3.000000,2.000000
38428,2026-07-30T09:26:59.392+08:00,88,0.176000,0,1007,32,1001,2,7.000000,32.000000,1.000000,2.000000
38429,2026-07-30T09:26:59.392+08:00,89,0.178000,0,1004,32,998,2,4.000000,32.000000,-2.000000,2.000000
38430,2026-07-30T09:26:59.392+08:00,90,0.180000,0,992,32,997,2,-8.000000,32.000000,-3.000000,2.000000
38431,2026-07-30T09:26:59.392+08:00,91,0.182000,0,991,32,998,2,-9.000000,32.000000,-2.000000,2.000000
38432,2026-07-30T09:26:59.392+08:00,92,0.184000,0,1005,32,999,2,5.000000,32.000000,-1.000000,2.000000
38433,2026-07-30T09:26:59.392+08:00,93,0.186000,0,1015,32,1001,2,15.000000,32.000000,1.000000,2.000000
38434,2026-07-30T09:26:59.392+08:00,94,0.188000,0,1004,32,1002,2,4.000000,32.000000,2.000000,2.000000
38435,2026-07-30T09:26:59.392+08:00,95,0.190000,0,986,32,1000,2,-14.000000,32.000000,0.000000,2.000000
38436,2026-07-30T09:26:59.392+08:00,96,0.192000,0,983,32,996,2,-17.000000,32.000000,-4.000000,2.000000
38437,2026-07-30T09:26:59.392+08:00,97,0.194000,0,1001,30,996,2,1.000000,30.000000,-4.000000,2.000000
38438,2026-07-30T09:26:59.392+08:00,98,0.196000,0,1016,32,1000,2,16.000000,32.000000,0.000000,2.000000
38439,2026-07-30T09:26:59.392+08:00,99,0.198000,0,1011,32,1004,2,11.000000,32.000000,4.000000,2.000000
38440,2026-07-30T09:26:59.392+08:00,100,0.200000,0,995,30,1002,2,-5.000000,30.000000,2.000000,2.000000
38441,2026-07-30T09:26:59.392+08:00,101,0.202000,0,987,32,997,2,-13.000000,32.000000,-3.000000,2.000000
38442,2026-07-30T09:26:59.392+08:00,102,0.204000,0,993,32,996,2,-7.000000,32.000000,-4.000000,2.000000
38443,2026-07-30T09:26:59.392+08:00,103,0.206000,0,1002,32,999,2,2.000000,32.000000,-1.000000,2.000000
38444,2026-07-30T09:26:59.392+08:00,104,0.208000,0,1005,32,1001,2,5.000000,32.000000,1.000000,2.000000
38445,2026-07-30T09:26:59.392+08:00,105,0.210000,0,1005,32,1000,2,5.000000,32.000000,0.000000,2.000000
38446,2026-07-30T09:26:59.392+08:00,106,0.212000,0,1005,32,999,2,5.000000,32.000000,-1.000000,2.000000
38447,2026-07-30T09:26:59.392+08:00,107,0.214000,0,1001,30,999,2,1.000000,30.000000,-1.000000,2.000000
38448,2026-07-30T09:26:59.395+08:00,108,0.216000,0,991,30,1000,2,-9.000000,30.000000,0.000000,2.000000
38449,2026-07-30T09:26:59.395+08:00,109,0.218000,0,986,32,1001,2,-14.000000,32.000000,1.000000,2.000000
38450,2026-07-30T09:26:59.395+08:00,110,0.220000,0,995,30,1000,2,-5.000000,30.000000,0.000000,2.000000
38451,2026-07-30T09:26:59.398+08:00,111,0.222000,0,1013,30,998,2,13.000000,30.000000,-2.000000,2.000000
38452,2026-07-30T09:26:59.398+08:00,112,0.224000,0,1019,30,999,2,19.000000,30.000000,-1.000000,2.000000
38453,2026-07-30T09:26:59.418+08:00,113,0.226000,0,1004,30,1000,2,4.000000,30.000000,0.000000,2.000000
38454,2026-07-30T09:26:59.424+08:00,114,0.228000,0,984,30,1001,2,-16.000000,30.000000,1.000000,2.000000
38455,2026-07-30T09:26:59.424+08:00,115,0.230000,0,980,30,1000,2,-20.000000,30.000000,0.000000,2.000000
38456,2026-07-30T09:26:59.424+08:00,116,0.232000,0,993,30,999,2,-7.000000,30.000000,-1.000000,2.000000
38457,2026-07-30T09:26:59.424+08:00,117,0.234000,0,1008,30,999,2,8.000000,30.000000,-1.000000,2.000000
38458,2026-07-30T09:26:59.424+08:00,118,0.236000,0,1016,30,1000,2,16.000000,30.000000,0.000000,2.000000
38459,2026-07-30T09:26:59.424+08:00,119,0.238000,0,1014,30,1000,2,14.000000,30.000000,0.000000,2.000000
38460,2026-07-30T09:26:59.424+08:00,120,0.240000,0,1004,30,999,2,4.000000,30.000000,-1.000000,2.000000
38461,2026-07-30T09:26:59.424+08:00,121,0.242000,0,985,30,997,2,-15.000000,30.000000,-3.000000,2.000000
38462,2026-07-30T09:26:59.424+08:00,122,0.244000,0,971,30,999,2,-29.000000,30.000000,-1.000000,2.000000
38463,2026-07-30T09:26:59.430+08:00,123,0.246000,0,985,30,1002,2,-15.000000,30.000000,2.000000,2.000000
38464,2026-07-30T09:26:59.430+08:00,124,0.248000,0,1021,30,1004,2,21.000000,30.000000,4.000000,2.000000
38465,2026-07-30T09:26:59.430+08:00,125,0.250000,0,1039,32,1000,2,39.000000,32.000000,0.000000,2.000000
38466,2026-07-30T09:26:59.430+08:00,126,0.252000,0,1009,32,995,2,9.000000,32.000000,-5.000000,2.000000
38467,2026-07-30T09:26:59.430+08:00,127,0.254000,0,963,32,995,2,-37.000000,32.000000,-5.000000,2.000000
38468,2026-07-30T09:26:59.459+08:00,128,0.256000,0,964,32,1000,2,-36.000000,32.000000,0.000000,2.000000
38469,2026-07-30T09:26:59.459+08:00,129,0.258000,0,1016,32,1004,2,16.000000,32.000000,4.000000,2.000000
38470,2026-07-30T09:26:59.459+08:00,130,0.260000,0,1047,32,1003,2,47.000000,32.000000,3.000000,2.000000
38471,2026-07-30T09:26:59.459+08:00,131,0.262000,0,1010,32,1000,2,10.000000,32.000000,0.000000,2.000000
38472,2026-07-30T09:26:59.459+08:00,132,0.264000,0,952,32,997,2,-48.000000,32.000000,-3.000000,2.000000
38473,2026-07-30T09:26:59.459+08:00,133,0.266000,0,957,32,996,2,-43.000000,32.000000,-4.000000,2.000000
38474,2026-07-30T09:26:59.459+08:00,134,0.268000,0,1024,32,996,2,24.000000,32.000000,-4.000000,2.000000
38475,2026-07-30T09:26:59.459+08:00,135,0.270000,0,1063,34,999,2,63.000000,34.000000,-1.000000,2.000000
38476,2026-07-30T09:26:59.459+08:00,136,0.272000,0,1021,34,1004,2,21.000000,34.000000,4.000000,2.000000
38477,2026-07-30T09:26:59.459+08:00,137,0.274000,0,954,34,1006,2,-46.000000,34.000000,6.000000,2.000000
38478,2026-07-30T09:26:59.459+08:00,138,0.276000,0,947,34,1000,2,-53.000000,34.000000,0.000000,2.000000
38479,2026-07-30T09:26:59.459+08:00,139,0.278000,0,1001,32,993,2,1.000000,32.000000,-7.000000,2.000000
38480,2026-07-30T09:26:59.459+08:00,140,0.280000,0,1040,34,993,2,40.000000,34.000000,-7.000000,2.000000
38481,2026-07-30T09:26:59.459+08:00,141,0.282000,0,1022,34,1000,2,22.000000,34.000000,0.000000,2.000000
38482,2026-07-30T09:26:59.459+08:00,142,0.284000,0,987,34,1005,2,-13.000000,34.000000,5.000000,2.000000
38483,2026-07-30T09:26:59.466+08:00,143,0.286000,0,988,34,1004,2,-12.000000,34.000000,4.000000,2.000000
38484,2026-07-30T09:26:59.468+08:00,144,0.288000,0,1009,34,999,2,9.000000,34.000000,-1.000000,2.000000
38485,2026-07-30T09:26:59.468+08:00,145,0.290000,0,1005,34,996,2,5.000000,34.000000,-4.000000,2.000000
38486,2026-07-30T09:26:59.468+08:00,146,0.292000,0,977,34,997,2,-23.000000,34.000000,-3.000000,2.000000
38487,2026-07-30T09:26:59.472+08:00,147,0.294000,0,970,34,1000,2,-30.000000,34.000000,0.000000,2.000000
38488,2026-07-30T09:26:59.472+08:00,148,0.296000,0,1006,34,1001,2,6.000000,34.000000,1.000000,2.000000
38489,2026-07-30T09:26:59.472+08:00,149,0.298000,0,1043,34,1000,2,43.000000,34.000000,0.000000,2.000000
38490,2026-07-30T09:26:59.482+08:00,150,0.300000,0,1034,34,1000,2,34.000000,34.000000,0.000000,2.000000
38491,2026-07-30T09:26:59.482+08:00,151,0.302000,0,987,34,1000,2,-13.000000,34.000000,0.000000,2.000000
38492,2026-07-30T09:26:59.482+08:00,152,0.304000,0,956,34,999,2,-44.000000,34.000000,-1.000000,2.000000
38493,2026-07-30T09:26:59.485+08:00,153,0.306000,0,971,34,999,2,-29.000000,34.000000,-1.000000,2.000000
38494,2026-07-30T09:26:59.485+08:00,154,0.308000,0,1007,34,998,2,7.000000,34.000000,-2.000000,2.000000
38495,2026-07-30T09:26:59.485+08:00,155,0.310000,0,1026,34,999,2,26.000000,34.000000,-1.000000,2.000000
38496,2026-07-30T09:26:59.487+08:00,156,0.312000,0,1021,34,1001,2,21.000000,34.000000,1.000000,2.000000
38497,2026-07-30T09:26:59.487+08:00,157,0.314000,0,1007,34,1001,2,7.000000,34.000000,1.000000,2.000000
38498,2026-07-30T09:26:59.497+08:00,158,0.316000,0,994,32,1000,2,-6.000000,32.000000,0.000000,2.000000
38499,2026-07-30T09:26:59.497+08:00,159,0.318000,0,980,32,999,2,-20.000000,32.000000,-1.000000,2.000000
38500,2026-07-30T09:26:59.497+08:00,160,0.320000,0,975,34,998,2,-25.000000,34.000000,-2.000000,2.000000
38501,2026-07-30T09:26:59.500+08:00,161,0.322000,0,992,32,998,2,-8.000000,32.000000,-2.000000,2.000000
38502,2026-07-30T09:26:59.500+08:00,162,0.324000,0,1023,32,999,2,23.000000,32.000000,-1.000000,2.000000
38503,2026-07-30T09:26:59.500+08:00,163,0.326000,0,1034,34,1001,2,34.000000,34.000000,1.000000,2.000000
38504,2026-07-30T09:26:59.501+08:00,164,0.328000,0,1008,34,1003,2,8.000000,34.000000,3.000000,2.000000
38505,2026-07-30T09:26:59.512+08:00,165,0.330000,0,970,34,1001,2,-30.000000,34.000000,1.000000,2.000000
38506,2026-07-30T09:26:59.512+08:00,166,0.332000,0,963,34,996,2,-37.000000,34.000000,-4.000000,2.000000
38507,2026-07-30T09:26:59.512+08:00,167,0.334000,0,998,34,994,2,-2.000000,34.000000,-6.000000,2.000000
38508,2026-07-30T09:26:59.514+08:00,168,0.336000,0,1034,34,998,2,34.000000,34.000000,-2.000000,2.000000
38509,2026-07-30T09:26:59.514+08:00,169,0.338000,0,1029,34,1005,2,29.000000,34.000000,5.000000,2.000000
38510,2026-07-30T09:26:59.514+08:00,170,0.340000,0,990,34,1006,2,-10.000000,34.000000,6.000000,2.000000
38511,2026-07-30T09:26:59.517+08:00,171,0.342000,0,966,34,1000,2,-34.000000,34.000000,0.000000,2.000000
38512,2026-07-30T09:26:59.517+08:00,172,0.344000,0,985,34,994,2,-15.000000,34.000000,-6.000000,2.000000
38513,2026-07-30T09:26:59.527+08:00,173,0.346000,0,1017,34,995,2,17.000000,34.000000,-5.000000,2.000000
38514,2026-07-30T09:26:59.527+08:00,174,0.348000,0,1018,36,1000,2,18.000000,36.000000,0.000000,2.000000
38515,2026-07-30T09:26:59.527+08:00,175,0.350000,0,991,36,1003,2,-9.000000,36.000000,3.000000,2.000000
38516,2026-07-30T09:26:59.530+08:00,176,0.352000,0,981,36,1002,2,-19.000000,36.000000,2.000000,2.000000
38517,2026-07-30T09:26:59.530+08:00,177,0.354000,0,1009,36,1000,2,9.000000,36.000000,0.000000,2.000000
38518,2026-07-30T09:26:59.530+08:00,178,0.356000,0,1032,36,999,2,32.000000,36.000000,-1.000000,2.000000
38519,2026-07-30T09:26:59.531+08:00,179,0.358000,0,1005,36,998,2,5.000000,36.000000,-2.000000,2.000000
38520,2026-07-30T09:26:59.542+08:00,180,0.360000,0,956,36,996,2,-44.000000,36.000000,-4.000000,2.000000
38521,2026-07-30T09:26:59.542+08:00,181,0.362000,0,956,38,997,2,-44.000000,38.000000,-3.000000,2.000000
38522,2026-07-30T09:26:59.542+08:00,182,0.364000,0,1017,38,1001,2,17.000000,38.000000,1.000000,2.000000
38523,2026-07-30T09:26:59.545+08:00,183,0.366000,0,1065,38,1005,2,65.000000,38.000000,5.000000,2.000000
38524,2026-07-30T09:26:59.545+08:00,184,0.368000,0,1038,38,1002,2,38.000000,38.000000,2.000000,2.000000
38525,2026-07-30T09:26:59.545+08:00,185,0.370000,0,967,38,996,2,-33.000000,38.000000,-4.000000,2.000000
38526,2026-07-30T09:26:59.548+08:00,186,0.372000,0,933,38,995,2,-67.000000,38.000000,-5.000000,2.000000
38527,2026-07-30T09:26:59.548+08:00,187,0.374000,0,968,40,998,2,-32.000000,40.000000,-2.000000,2.000000
38528,2026-07-30T09:26:59.558+08:00,188,0.376000,0,1030,38,1002,2,30.000000,38.000000,2.000000,2.000000
38529,2026-07-30T09:26:59.558+08:00,189,0.378000,0,1062,40,1002,2,62.000000,40.000000,2.000000,2.000000
38530,2026-07-30T09:26:59.558+08:00,190,0.380000,0,1038,40,1001,2,38.000000,40.000000,1.000000,2.000000
38531,2026-07-30T09:26:59.560+08:00,191,0.382000,0,976,40,999,2,-24.000000,40.000000,-1.000000,2.000000
38532,2026-07-30T09:26:59.560+08:00,192,0.384000,0,930,40,998,2,-70.000000,40.000000,-2.000000,2.000000
38533,2026-07-30T09:26:59.560+08:00,193,0.386000,0,951,40,998,2,-49.000000,40.000000,-2.000000,2.000000
38534,2026-07-30T09:26:59.562+08:00,194,0.388000,0,1027,42,999,2,27.000000,42.000000,-1.000000,2.000000
38535,2026-07-30T09:26:59.572+08:00,195,0.390000,0,1078,42,1000,2,78.000000,42.000000,0.000000,2.000000
38536,2026-07-30T09:26:59.572+08:00,196,0.392000,0,1043,42,1001,2,43.000000,42.000000,1.000000,2.000000
38537,2026-07-30T09:26:59.572+08:00,197,0.394000,0,961,44,1001,2,-39.000000,44.000000,1.000000,2.000000
38538,2026-07-30T09:26:59.575+08:00,198,0.396000,0,928,44,999,2,-72.000000,44.000000,-1.000000,2.000000
38539,2026-07-30T09:26:59.575+08:00,199,0.398000,0,975,44,998,2,-25.000000,44.000000,-2.000000,2.000000
38540,2026-07-30T09:26:59.575+08:00,200,0.400000,0,1037,44,999,2,37.000000,44.000000,-1.000000,2.000000
38541,2026-07-30T09:26:59.578+08:00,201,0.402000,0,1045,44,1001,2,45.000000,44.000000,1.000000,2.000000
38542,2026-07-30T09:26:59.578+08:00,202,0.404000,0,1006,44,1002,2,6.000000,44.000000,2.000000,2.000000
38543,2026-07-30T09:26:59.588+08:00,203,0.406000,0,976,44,999,2,-24.000000,44.000000,-1.000000,2.000000
38544,2026-07-30T09:26:59.588+08:00,204,0.408000,0,982,44,996,2,-18.000000,44.000000,-4.000000,2.000000
38545,2026-07-30T09:26:59.588+08:00,205,0.410000,0,1000,44,997,2,0.000000,44.000000,-3.000000,2.000000
38546,2026-07-30T09:26:59.590+08:00,206,0.412000,0,1002,42,1002,2,2.000000,42.000000,2.000000,2.000000
38547,2026-07-30T09:26:59.590+08:00,207,0.414000,0,997,42,1005,2,-3.000000,42.000000,5.000000,2.000000
38548,2026-07-30T09:26:59.590+08:00,208,0.416000,0,1004,42,1001,2,4.000000,42.000000,1.000000,2.000000
38549,2026-07-30T09:26:59.592+08:00,209,0.418000,0,1014,42,995,2,14.000000,42.000000,-5.000000,2.000000
38550,2026-07-30T09:26:59.603+08:00,210,0.420000,0,1008,42,994,2,8.000000,42.000000,-6.000000,2.000000
38551,2026-07-30T09:26:59.603+08:00,211,0.422000,0,989,42,999,2,-11.000000,42.000000,-1.000000,2.000000
38552,2026-07-30T09:26:59.603+08:00,212,0.424000,0,980,42,1004,2,-20.000000,42.000000,4.000000,2.000000
38553,2026-07-30T09:26:59.605+08:00,213,0.426000,0,990,42,1003,2,-10.000000,42.000000,3.000000,2.000000
38554,2026-07-30T09:26:59.605+08:00,214,0.428000,0,1010,42,998,2,10.000000,42.000000,-2.000000,2.000000
38555,2026-07-30T09:26:59.605+08:00,215,0.430000,0,1022,42,996,2,22.000000,42.000000,-4.000000,2.000000
38556,2026-07-30T09:26:59.607+08:00,216,0.432000,0,1012,42,999,2,12.000000,42.000000,-1.000000,2.000000
38557,2026-07-30T09:26:59.607+08:00,217,0.434000,0,987,42,1001,2,-13.000000,42.000000,1.000000,2.000000
38558,2026-07-30T09:26:59.618+08:00,218,0.436000,0,975,42,1001,2,-25.000000,42.000000,1.000000,2.000000
38559,2026-07-30T09:26:59.618+08:00,219,0.438000,0,991,42,998,2,-9.000000,42.000000,-2.000000,2.000000
38560,2026-07-30T09:26:59.618+08:00,220,0.440000,0,1013,42,997,2,13.000000,42.000000,-3.000000,2.000000
38561,2026-07-30T09:26:59.621+08:00,221,0.442000,0,1015,42,1000,2,15.000000,42.000000,0.000000,2.000000
38562,2026-07-30T09:26:59.621+08:00,222,0.444000,0,1001,42,1002,2,1.000000,42.000000,2.000000,2.000000
38563,2026-07-30T09:26:59.621+08:00,223,0.446000,0,994,42,1001,2,-6.000000,42.000000,1.000000,2.000000
38564,2026-07-30T09:26:59.622+08:00,224,0.448000,0,997,42,998,2,-3.000000,42.000000,-2.000000,2.000000
38565,2026-07-30T09:26:59.632+08:00,225,0.450000,0,999,42,997,2,-1.000000,42.000000,-3.000000,2.000000
38566,2026-07-30T09:26:59.632+08:00,226,0.452000,0,992,42,999,2,-8.000000,42.000000,-1.000000,2.000000
38567,2026-07-30T09:26:59.632+08:00,227,0.454000,0,992,42,1001,2,-8.000000,42.000000,1.000000,2.000000
38568,2026-07-30T09:26:59.635+08:00,228,0.456000,0,1005,42,1001,2,5.000000,42.000000,1.000000,2.000000
38569,2026-07-30T09:26:59.635+08:00,229,0.458000,0,1019,42,999,2,19.000000,42.000000,-1.000000,2.000000
38570,2026-07-30T09:26:59.635+08:00,230,0.460000,0,1012,42,999,2,12.000000,42.000000,-1.000000,2.000000
38571,2026-07-30T09:26:59.637+08:00,231,0.462000,0,987,42,1000,2,-13.000000,42.000000,0.000000,2.000000
38572,2026-07-30T09:26:59.637+08:00,232,0.464000,0,970,42,1000,2,-30.000000,42.000000,0.000000,2.000000
38573,2026-07-30T09:26:59.647+08:00,233,0.466000,0,987,42,998,2,-13.000000,42.000000,-2.000000,2.000000
38574,2026-07-30T09:26:59.647+08:00,234,0.468000,0,1021,44,998,2,21.000000,44.000000,-2.000000,2.000000
38575,2026-07-30T09:26:59.647+08:00,235,0.470000,0,1032,44,1000,2,32.000000,44.000000,0.000000,2.000000
38576,2026-07-30T09:26:59.650+08:00,236,0.472000,0,1006,44,1002,2,6.000000,44.000000,2.000000,2.000000
38577,2026-07-30T09:26:59.650+08:00,237,0.474000,0,977,44,1001,2,-23.000000,44.000000,1.000000,2.000000
38578,2026-07-30T09:26:59.650+08:00,238,0.476000,0,979,44,998,2,-21.000000,44.000000,-2.000000,2.000000
38579,2026-07-30T09:26:59.652+08:00,239,0.478000,0,1000,44,999,2,0.000000,44.000000,-1.000000,2.000000
38580,2026-07-30T09:26:59.662+08:00,240,0.480000,0,1006,44,1000,2,6.000000,44.000000,0.000000,2.000000
38581,2026-07-30T09:26:59.662+08:00,241,0.482000,0,998,44,999,2,-2.000000,44.000000,-1.000000,2.000000
38582,2026-07-30T09:26:59.662+08:00,242,0.484000,0,1002,44,998,2,2.000000,44.000000,-2.000000,2.000000
38583,2026-07-30T09:26:59.665+08:00,243,0.486000,0,1020,44,999,2,20.000000,44.000000,-1.000000,2.000000
38584,2026-07-30T09:26:59.665+08:00,244,0.488000,0,1018,44,1002,2,18.000000,44.000000,2.000000,2.000000
38585,2026-07-30T09:26:59.665+08:00,245,0.490000,0,987,44,1001,2,-13.000000,44.000000,1.000000,2.000000
38586,2026-07-30T09:26:59.668+08:00,246,0.492000,0,962,44,998,2,-38.000000,44.000000,-2.000000,2.000000
38587,2026-07-30T09:26:59.668+08:00,247,0.494000,0,976,44,997,2,-24.000000,44.000000,-3.000000,2.000000
38588,2026-07-30T09:26:59.677+08:00,248,0.496000,0,1015,44,999,2,15.000000,44.000000,-1.000000,2.000000
38589,2026-07-30T09:26:59.677+08:00,249,0.498000,0,1037,44,1001,2,37.000000,44.000000,1.000000,2.000000
38590,2026-07-30T09:26:59.677+08:00,250,0.500000,0,1021,44,1001,2,21.000000,44.000000,1.000000,2.000000
38591,2026-07-30T09:26:59.680+08:00,251,0.502000,0,990,44,999,2,-10.000000,44.000000,-1.000000,2.000000
38592,2026-07-30T09:26:59.680+08:00,252,0.504000,0,976,44,999,2,-24.000000,44.000000,-1.000000,2.000000
38593,2026-07-30T09:26:59.680+08:00,253,0.506000,0,982,44,1000,2,-18.000000,44.000000,0.000000,2.000000
38594,2026-07-30T09:26:59.681+08:00,254,0.508000,0,994,44,1001,2,-6.000000,44.000000,1.000000,2.000000
38595,2026-07-30T09:26:59.692+08:00,255,0.510000,0,1005,44,999,2,5.000000,44.000000,-1.000000,2.000000
38596,2026-07-30T09:26:59.692+08:00,256,0.512000,0,1018,44,998,2,18.000000,44.000000,-2.000000,2.000000
38597,2026-07-30T09:26:59.692+08:00,257,0.514000,0,1026,44,998,2,26.000000,44.000000,-2.000000,2.000000
38598,2026-07-30T09:26:59.696+08:00,258,0.516000,0,1007,42,1001,2,7.000000,42.000000,1.000000,2.000000
38599,2026-07-30T09:26:59.696+08:00,259,0.518000,0,967,44,1002,2,-33.000000,44.000000,2.000000,2.000000
38600,2026-07-30T09:26:59.696+08:00,260,0.520000,0,955,44,1000,2,-45.000000,44.000000,0.000000,2.000000
38601,2026-07-30T09:26:59.698+08:00,261,0.522000,0,998,42,998,2,-2.000000,42.000000,-2.000000,2.000000
38602,2026-07-30T09:26:59.698+08:00,262,0.524000,0,1052,42,997,2,52.000000,42.000000,-3.000000,2.000000
38603,2026-07-30T09:26:59.707+08:00,263,0.526000,0,1046,42,999,2,46.000000,42.000000,-1.000000,2.000000
38604,2026-07-30T09:26:59.707+08:00,264,0.528000,0,980,42,1001,2,-20.000000,42.000000,1.000000,2.000000
38605,2026-07-30T09:26:59.707+08:00,265,0.530000,0,938,42,1002,2,-62.000000,42.000000,2.000000,2.000000
38606,2026-07-30T09:26:59.709+08:00,266,0.532000,0,972,42,999,2,-28.000000,42.000000,-1.000000,2.000000
38607,2026-07-30T09:26:59.709+08:00,267,0.534000,0,1034,44,997,2,34.000000,44.000000,-3.000000,2.000000
38608,2026-07-30T09:26:59.709+08:00,268,0.536000,0,1045,44,998,2,45.000000,44.000000,-2.000000,2.000000
38609,2026-07-30T09:26:59.711+08:00,269,0.538000,0,1003,42,1000,2,3.000000,42.000000,0.000000,2.000000
38610,2026-07-30T09:26:59.722+08:00,270,0.540000,0,973,44,1001,2,-27.000000,44.000000,1.000000,2.000000
38611,2026-07-30T09:26:59.722+08:00,271,0.542000,0,983,44,1000,2,-17.000000,44.000000,0.000000,2.000000
38612,2026-07-30T09:26:59.722+08:00,272,0.544000,0,1002,42,999,2,2.000000,42.000000,-1.000000,2.000000
38613,2026-07-30T09:26:59.724+08:00,273,0.546000,0,999,42,1000,2,-1.000000,42.000000,0.000000,2.000000
38614,2026-07-30T09:26:59.724+08:00,274,0.548000,0,995,42,1000,2,-5.000000,42.000000,0.000000,2.000000
38615,2026-07-30T09:26:59.724+08:00,275,0.550000,0,1009,42,999,2,9.000000,42.000000,-1.000000,2.000000
38616,2026-07-30T09:26:59.727+08:00,276,0.552000,0,1024,42,998,2,24.000000,42.000000,-2.000000,2.000000
38617,2026-07-30T09:26:59.727+08:00,277,0.554000,0,1011,42,998,2,11.000000,42.000000,-2.000000,2.000000
38618,2026-07-30T09:26:59.735+08:00,278,0.556000,0,976,42,1000,2,-24.000000,42.000000,0.000000,2.000000
38619,2026-07-30T09:26:59.739+08:00,279,0.558000,0,962,42,1002,2,-38.000000,42.000000,2.000000,2.000000
38620,2026-07-30T09:26:59.739+08:00,280,0.560000,0,990,42,1002,2,-10.000000,42.000000,2.000000,2.000000
38621,2026-07-30T09:26:59.739+08:00,281,0.562000,0,1033,42,999,2,33.000000,42.000000,-1.000000,2.000000
38622,2026-07-30T09:26:59.743+08:00,282,0.564000,0,1040,42,996,2,40.000000,42.000000,-4.000000,2.000000
38623,2026-07-30T09:26:59.743+08:00,283,0.566000,0,1001,42,996,2,1.000000,42.000000,-4.000000,2.000000
38624,2026-07-30T09:26:59.743+08:00,284,0.568000,0,961,42,1000,2,-39.000000,42.000000,0.000000,2.000000
38625,2026-07-30T09:26:59.753+08:00,285,0.570000,0,967,42,1004,2,-33.000000,42.000000,4.000000,2.000000
38626,2026-07-30T09:26:59.753+08:00,286,0.572000,0,1008,42,1004,2,8.000000,42.000000,4.000000,2.000000
38627,2026-07-30T09:26:59.753+08:00,287,0.574000,0,1029,42,999,2,29.000000,42.000000,-1.000000,2.000000
38628,2026-07-30T09:26:59.756+08:00,288,0.576000,0,1012,42,995,2,12.000000,42.000000,-5.000000,2.000000
38629,2026-07-30T09:26:59.756+08:00,289,0.578000,0,991,42,997,2,-9.000000,42.000000,-3.000000,2.000000
38630,2026-07-30T09:26:59.756+08:00,290,0.580000,0,995,42,1001,2,-5.000000,42.000000,1.000000,2.000000
38631,2026-07-30T09:26:59.758+08:00,291,0.582000,0,1003,42,1003,2,3.000000,42.000000,3.000000,2.000000
38632,2026-07-30T09:26:59.758+08:00,292,0.584000,0,994,42,1000,2,-6.000000,42.000000,0.000000,2.000000
38633,2026-07-30T09:26:59.766+08:00,293,0.586000,0,984,42,998,2,-16.000000,42.000000,-2.000000,2.000000
38634,2026-07-30T09:26:59.769+08:00,294,0.588000,0,995,42,999,2,-5.000000,42.000000,-1.000000,2.000000
38635,2026-07-30T09:26:59.769+08:00,295,0.590000,0,1015,42,1000,2,15.000000,42.000000,0.000000,2.000000
38636,2026-07-30T09:26:59.769+08:00,296,0.592000,0,1015,42,1000,2,15.000000,42.000000,0.000000,2.000000
38637,2026-07-30T09:26:59.772+08:00,297,0.594000,0,997,40,999,2,-3.000000,40.000000,-1.000000,2.000000
38638,2026-07-30T09:26:59.772+08:00,298,0.596000,0,991,40,1000,2,-9.000000,40.000000,0.000000,2.000000
38639,2026-07-30T09:26:59.772+08:00,299,0.598000,0,1003,40,1000,2,3.000000,40.000000,0.000000,2.000000
38640,2026-07-30T09:26:59.782+08:00,300,0.600000,0,1004,40,999,2,4.000000,40.000000,-1.000000,2.000000
38641,2026-07-30T09:26:59.782+08:00,301,0.602000,0,984,40,998,2,-16.000000,40.000000,-2.000000,2.000000
38642,2026-07-30T09:26:59.782+08:00,302,0.604000,0,978,40,999,2,-22.000000,40.000000,-1.000000,2.000000
38643,2026-07-30T09:26:59.784+08:00,303,0.606000,0,1008,40,1002,2,8.000000,40.000000,2.000000,2.000000
38644,2026-07-30T09:26:59.784+08:00,304,0.608000,0,1039,40,1002,2,39.000000,40.000000,2.000000,2.000000
38645,2026-07-30T09:26:59.784+08:00,305,0.610000,0,1024,40,998,2,24.000000,40.000000,-2.000000,2.000000
38646,2026-07-30T09:26:59.787+08:00,306,0.612000,0,975,40,996,2,-25.000000,40.000000,-4.000000,2.000000
38647,2026-07-30T09:26:59.787+08:00,307,0.614000,0,953,42,998,2,-47.000000,42.000000,-2.000000,2.000000
38648,2026-07-30T09:26:59.797+08:00,308,0.616000,0,985,40,1002,2,-15.000000,40.000000,2.000000,2.000000
38649,2026-07-30T09:26:59.797+08:00,309,0.618000,0,1031,40,1002,2,31.000000,40.000000,2.000000,2.000000
38650,2026-07-30T09:26:59.797+08:00,310,0.620000,0,1037,40,999,2,37.000000,40.000000,-1.000000,2.000000
38651,2026-07-30T09:26:59.800+08:00,311,0.622000,0,1001,40,998,2,1.000000,40.000000,-2.000000,2.000000
38652,2026-07-30T09:26:59.800+08:00,312,0.624000,0,971,40,1000,2,-29.000000,40.000000,0.000000,2.000000
38653,2026-07-30T09:26:59.800+08:00,313,0.626000,0,977,40,1000,2,-23.000000,40.000000,0.000000,2.000000
38654,2026-07-30T09:26:59.801+08:00,314,0.628000,0,1005,38,999,2,5.000000,38.000000,-1.000000,2.000000
38655,2026-07-30T09:26:59.812+08:00,315,0.630000,0,1022,38,998,2,22.000000,38.000000,-2.000000,2.000000
38656,2026-07-30T09:26:59.812+08:00,316,0.632000,0,1015,38,1000,2,15.000000,38.000000,0.000000,2.000000
38657,2026-07-30T09:26:59.812+08:00,317,0.634000,0,991,38,1002,2,-9.000000,38.000000,2.000000,2.000000
38658,2026-07-30T09:26:59.814+08:00,318,0.636000,0,973,38,1001,2,-27.000000,38.000000,1.000000,2.000000
38659,2026-07-30T09:26:59.814+08:00,319,0.638000,0,984,36,998,2,-16.000000,36.000000,-2.000000,2.000000
38660,2026-07-30T09:26:59.814+08:00,320,0.640000,0,1016,36,997,2,16.000000,36.000000,-3.000000,2.000000
38661,2026-07-30T09:26:59.818+08:00,321,0.642000,0,1031,36,998,2,31.000000,36.000000,-2.000000,2.000000
38662,2026-07-30T09:26:59.818+08:00,322,0.644000,0,1009,36,1000,2,9.000000,36.000000,0.000000,2.000000
38663,2026-07-30T09:26:59.825+08:00,323,0.646000,0,976,34,1002,2,-24.000000,34.000000,2.000000,2.000000
38664,2026-07-30T09:26:59.828+08:00,324,0.648000,0,973,34,1001,2,-27.000000,34.000000,1.000000,2.000000
38665,2026-07-30T09:26:59.828+08:00,325,0.650000,0,1003,34,1000,2,3.000000,34.000000,0.000000,2.000000
38666,2026-07-30T09:26:59.828+08:00,326,0.652000,0,1023,34,998,2,23.000000,34.000000,-2.000000,2.000000
38667,2026-07-30T09:26:59.832+08:00,327,0.654000,0,1005,32,998,2,5.000000,32.000000,-2.000000,2.000000
38668,2026-07-30T09:26:59.832+08:00,328,0.656000,0,978,32,998,2,-22.000000,32.000000,-2.000000,2.000000
38669,2026-07-30T09:26:59.832+08:00,329,0.658000,0,986,32,999,2,-14.000000,32.000000,-1.000000,2.000000
38670,2026-07-30T09:26:59.842+08:00,330,0.660000,0,1023,32,1000,2,23.000000,32.000000,0.000000,2.000000
38671,2026-07-30T09:26:59.842+08:00,331,0.662000,0,1035,32,1001,2,35.000000,32.000000,1.000000,2.000000
38672,2026-07-30T09:26:59.842+08:00,332,0.664000,0,995,32,1001,2,-5.000000,32.000000,1.000000,2.000000
38673,2026-07-30T09:26:59.845+08:00,333,0.666000,0,950,34,1000,2,-50.000000,34.000000,0.000000,2.000000
38674,2026-07-30T09:26:59.845+08:00,334,0.668000,0,963,34,999,2,-37.000000,34.000000,-1.000000,2.000000
38675,2026-07-30T09:26:59.845+08:00,335,0.670000,0,1026,34,997,2,26.000000,34.000000,-3.000000,2.000000
38676,2026-07-30T09:26:59.848+08:00,336,0.672000,0,1064,34,996,2,64.000000,34.000000,-4.000000,2.000000
38677,2026-07-30T09:26:59.848+08:00,337,0.674000,0,1025,36,999,0,25.000000,36.000000,-1.000000,0.000000
38678,2026-07-30T09:26:59.857+08:00,338,0.676000,0,953,36,1004,0,-47.000000,36.000000,4.000000,0.000000
38679,2026-07-30T09:26:59.857+08:00,339,0.678000,0,936,36,1006,2,-64.000000,36.000000,6.000000,2.000000
38680,2026-07-30T09:26:59.857+08:00,340,0.680000,0,992,36,1000,2,-8.000000,36.000000,0.000000,2.000000
38681,2026-07-30T09:26:59.860+08:00,341,0.682000,0,1054,38,993,2,54.000000,38.000000,-7.000000,2.000000
38682,2026-07-30T09:26:59.860+08:00,342,0.684000,0,1051,38,993,2,51.000000,38.000000,-7.000000,2.000000
38683,2026-07-30T09:26:59.860+08:00,343,0.686000,0,994,38,1001,2,-6.000000,38.000000,1.000000,2.000000
38684,2026-07-30T09:26:59.862+08:00,344,0.688000,0,950,38,1007,2,-50.000000,38.000000,7.000000,2.000000
38685,2026-07-30T09:26:59.872+08:00,345,0.690000,0,963,38,1004,2,-37.000000,38.000000,4.000000,2.000000
38686,2026-07-30T09:26:59.872+08:00,346,0.692000,0,1010,38,997,2,10.000000,38.000000,-3.000000,2.000000
38687,2026-07-30T09:26:59.872+08:00,347,0.694000,0,1038,38,994,2,38.000000,38.000000,-6.000000,2.000000
38688,2026-07-30T09:26:59.876+08:00,348,0.696000,0,1022,38,998,2,22.000000,38.000000,-2.000000,2.000000
38689,2026-07-30T09:26:59.876+08:00,349,0.698000,0,988,38,1003,2,-12.000000,38.000000,3.000000,2.000000
38690,2026-07-30T09:26:59.876+08:00,350,0.700000,0,974,40,1002,2,-26.000000,40.000000,2.000000,2.000000
38691,2026-07-30T09:26:59.878+08:00,351,0.702000,0,988,40,997,2,-12.000000,40.000000,-3.000000,2.000000
38692,2026-07-30T09:26:59.878+08:00,352,0.704000,0,1008,40,995,2,8.000000,40.000000,-5.000000,2.000000
38693,2026-07-30T09:26:59.885+08:00,353,0.706000,0,1012,40,1000,2,12.000000,40.000000,0.000000,2.000000
38694,2026-07-30T09:26:59.888+08:00,354,0.708000,0,1001,40,1005,2,1.000000,40.000000,5.000000,2.000000
38695,2026-07-30T09:26:59.888+08:00,355,0.710000,0,996,40,1004,2,-4.000000,40.000000,4.000000,2.000000
38696,2026-07-30T09:26:59.888+08:00,356,0.712000,0,1000,40,997,2,0.000000,40.000000,-3.000000,2.000000
38697,2026-07-30T09:26:59.892+08:00,357,0.714000,0,1002,38,993,2,2.000000,38.000000,-7.000000,2.000000
38698,2026-07-30T09:26:59.892+08:00,358,0.716000,0,996,38,995,2,-4.000000,38.000000,-5.000000,2.000000
38699,2026-07-30T09:26:59.892+08:00,359,0.718000,0,992,38,1002,2,-8.000000,38.000000,2.000000,2.000000
38700,2026-07-30T09:26:59.903+08:00,360,0.720000,0,1001,38,1006,2,1.000000,38.000000,6.000000,2.000000
38701,2026-07-30T09:26:59.903+08:00,361,0.722000,0,1010,38,1003,2,10.000000,38.000000,3.000000,2.000000
38702,2026-07-30T09:26:59.903+08:00,362,0.724000,0,1006,38,998,2,6.000000,38.000000,-2.000000,2.000000
38703,2026-07-30T09:26:59.905+08:00,363,0.726000,0,991,38,996,2,-9.000000,38.000000,-4.000000,2.000000
38704,2026-07-30T09:26:59.905+08:00,364,0.728000,0,986,38,998,2,-14.000000,38.000000,-2.000000,2.000000
38705,2026-07-30T09:26:59.905+08:00,365,0.730000,0,1000,38,1000,2,0.000000,38.000000,0.000000,2.000000
38706,2026-07-30T09:26:59.908+08:00,366,0.732000,0,1016,38,1001,2,16.000000,38.000000,1.000000,2.000000
38707,2026-07-30T09:26:59.908+08:00,367,0.734000,0,1010,38,1000,2,10.000000,38.000000,0.000000,2.000000
38708,2026-07-30T09:26:59.916+08:00,368,0.736000,0,987,38,1000,2,-13.000000,38.000000,0.000000,2.000000
38709,2026-07-30T09:26:59.918+08:00,369,0.738000,0,980,38,1000,2,-20.000000,38.000000,0.000000,2.000000
38710,2026-07-30T09:26:59.918+08:00,370,0.740000,0,999,38,999,2,-1.000000,38.000000,-1.000000,2.000000
38711,2026-07-30T09:26:59.918+08:00,371,0.742000,0,1020,38,999,2,20.000000,38.000000,-1.000000,2.000000
38712,2026-07-30T09:26:59.922+08:00,372,0.744000,0,1014,38,1000,2,14.000000,38.000000,0.000000,2.000000
38713,2026-07-30T09:26:59.922+08:00,373,0.746000,0,990,38,1000,2,-10.000000,38.000000,0.000000,2.000000
38714,2026-07-30T09:26:59.922+08:00,374,0.748000,0,980,38,999,2,-20.000000,38.000000,-1.000000,2.000000
38715,2026-07-30T09:26:59.933+08:00,375,0.750000,0,994,38,999,2,-6.000000,38.000000,-1.000000,2.000000
38716,2026-07-30T09:26:59.933+08:00,376,0.752000,0,1011,38,1001,2,11.000000,38.000000,1.000000,2.000000
38717,2026-07-30T09:26:59.933+08:00,377,0.754000,0,1012,36,1002,2,12.000000,36.000000,2.000000,2.000000
38718,2026-07-30T09:26:59.935+08:00,378,0.756000,0,1000,36,999,2,0.000000,36.000000,-1.000000,2.000000
38719,2026-07-30T09:26:59.935+08:00,379,0.758000,0,993,36,997,2,-7.000000,36.000000,-3.000000,2.000000
38720,2026-07-30T09:26:59.935+08:00,380,0.760000,0,995,36,999,2,-5.000000,36.000000,-1.000000,2.000000
38721,2026-07-30T09:26:59.939+08:00,381,0.762000,0,998,36,1003,2,-2.000000,36.000000,3.000000,2.000000
38722,2026-07-30T09:26:59.939+08:00,382,0.764000,0,1000,36,1001,2,0.000000,36.000000,1.000000,2.000000
38723,2026-07-30T09:26:59.947+08:00,383,0.766000,0,1002,36,997,2,2.000000,36.000000,-3.000000,2.000000
38724,2026-07-30T09:26:59.947+08:00,384,0.768000,0,1003,36,996,2,3.000000,36.000000,-4.000000,2.000000
38725,2026-07-30T09:26:59.947+08:00,385,0.770000,0,1000,36,1001,2,0.000000,36.000000,1.000000,2.000000
38726,2026-07-30T09:26:59.949+08:00,386,0.772000,0,996,36,1005,2,-4.000000,36.000000,5.000000,2.000000
38727,2026-07-30T09:26:59.949+08:00,387,0.774000,0,996,34,1002,2,-4.000000,34.000000,2.000000,2.000000
38728,2026-07-30T09:26:59.949+08:00,388,0.776000,0,999,34,996,2,-1.000000,34.000000,-4.000000,2.000000
38729,2026-07-30T09:26:59.952+08:00,389,0.778000,0,1002,34,995,2,2.000000,34.000000,-5.000000,2.000000
38730,2026-07-30T09:26:59.962+08:00,390,0.780000,0,1002,34,1000,2,2.000000,34.000000,0.000000,2.000000
38731,2026-07-30T09:26:59.962+08:00,391,0.782000,0,1001,32,1004,2,1.000000,32.000000,4.000000,2.000000
38732,2026-07-30T09:26:59.962+08:00,392,0.784000,0,999,32,1003,2,-1.000000,32.000000,3.000000,2.000000
38733,2026-07-30T09:26:59.965+08:00,393,0.786000,0,996,32,998,2,-4.000000,32.000000,-2.000000,2.000000
38734,2026-07-30T09:26:59.965+08:00,394,0.788000,0,995,30,997,2,-5.000000,30.000000,-3.000000,2.000000
38735,2026-07-30T09:26:59.965+08:00,395,0.790000,0,1000,30,999,2,0.000000,30.000000,-1.000000,2.000000
38736,2026-07-30T09:26:59.967+08:00,396,0.792000,0,1006,30,999,2,6.000000,30.000000,-1.000000,2.000000
38737,2026-07-30T09:26:59.967+08:00,397,0.794000,0,1006,30,999,2,6.000000,30.000000,-1.000000,2.000000
38738,2026-07-30T09:26:59.977+08:00,398,0.796000,0,998,30,999,2,-2.000000,30.000000,-1.000000,2.000000
38739,2026-07-30T09:26:59.977+08:00,399,0.798000,0,991,30,1001,2,-9.000000,30.000000,1.000000,2.000000
38740,2026-07-30T09:26:59.977+08:00,400,0.800000,0,993,30,1002,2,-7.000000,30.000000,2.000000,2.000000
38741,2026-07-30T09:26:59.980+08:00,401,0.802000,0,1002,30,999,2,2.000000,30.000000,-1.000000,2.000000
38742,2026-07-30T09:26:59.980+08:00,402,0.804000,0,1009,30,996,2,9.000000,30.000000,-4.000000,2.000000
38743,2026-07-30T09:26:59.980+08:00,403,0.806000,0,1006,30,997,2,6.000000,30.000000,-3.000000,2.000000
38744,2026-07-30T09:26:59.982+08:00,404,0.808000,0,997,30,1000,2,-3.000000,30.000000,0.000000,2.000000
38745,2026-07-30T09:26:59.993+08:00,405,0.810000,0,990,28,1002,2,-10.000000,28.000000,2.000000,2.000000
38746,2026-07-30T09:26:59.993+08:00,406,0.812000,0,991,28,1000,2,-9.000000,28.000000,0.000000,2.000000
38747,2026-07-30T09:26:59.993+08:00,407,0.814000,0,1002,28,998,2,2.000000,28.000000,-2.000000,2.000000
38748,2026-07-30T09:26:59.995+08:00,408,0.816000,0,1010,28,999,2,10.000000,28.000000,-1.000000,2.000000
38749,2026-07-30T09:26:59.995+08:00,409,0.818000,0,1007,28,1000,2,7.000000,28.000000,0.000000,2.000000
38750,2026-07-30T09:26:59.995+08:00,410,0.820000,0,996,28,1000,2,-4.000000,28.000000,0.000000,2.000000
38751,2026-07-30T09:26:59.998+08:00,411,0.822000,0,990,28,998,2,-10.000000,28.000000,-2.000000,2.000000
38752,2026-07-30T09:26:59.998+08:00,412,0.824000,0,996,26,998,2,-4.000000,26.000000,-2.000000,2.000000
38753,2026-07-30T09:27:00.007+08:00,413,0.826000,0,1005,26,1000,2,5.000000,26.000000,0.000000,2.000000
38754,2026-07-30T09:27:00.007+08:00,414,0.828000,0,1005,26,1001,2,5.000000,26.000000,1.000000,2.000000
38755,2026-07-30T09:27:00.007+08:00,415,0.830000,0,998,26,1001,2,-2.000000,26.000000,1.000000,2.000000
38756,2026-07-30T09:27:00.010+08:00,416,0.832000,0,995,26,999,2,-5.000000,26.000000,-1.000000,2.000000
38757,2026-07-30T09:27:00.010+08:00,417,0.834000,0,998,26,999,2,-2.000000,26.000000,-1.000000,2.000000
38758,2026-07-30T09:27:00.010+08:00,418,0.836000,0,1002,26,999,2,2.000000,26.000000,-1.000000,2.000000
38759,2026-07-30T09:27:00.011+08:00,419,0.838000,0,1003,26,999,2,3.000000,26.000000,-1.000000,2.000000
38760,2026-07-30T09:27:00.023+08:00,420,0.840000,0,1000,26,999,2,0.000000,26.000000,-1.000000,2.000000
38761,2026-07-30T09:27:00.023+08:00,421,0.842000,0,997,26,1000,2,-3.000000,26.000000,0.000000,2.000000
38762,2026-07-30T09:27:00.023+08:00,422,0.844000,0,998,26,1001,2,-2.000000,26.000000,1.000000,2.000000
38763,2026-07-30T09:27:00.025+08:00,423,0.846000,0,1001,26,1001,2,1.000000,26.000000,1.000000,2.000000
38764,2026-07-30T09:27:00.025+08:00,424,0.848000,0,1001,24,999,2,1.000000,24.000000,-1.000000,2.000000
38765,2026-07-30T09:27:00.025+08:00,425,0.850000,0,996,24,998,2,-4.000000,24.000000,-2.000000,2.000000
38766,2026-07-30T09:27:00.028+08:00,426,0.852000,0,994,24,999,2,-6.000000,24.000000,-1.000000,2.000000
38767,2026-07-30T09:27:00.028+08:00,427,0.854000,0,1002,24,1001,2,2.000000,24.000000,1.000000,2.000000
38768,2026-07-30T09:27:00.037+08:00,428,0.856000,0,1012,24,1001,2,12.000000,24.000000,1.000000,2.000000
38769,2026-07-30T09:27:00.037+08:00,429,0.858000,0,1007,24,999,2,7.000000,24.000000,-1.000000,2.000000
38770,2026-07-30T09:27:00.037+08:00,430,0.860000,0,990,24,997,2,-10.000000,24.000000,-3.000000,2.000000
38771,2026-07-30T09:27:00.040+08:00,431,0.862000,0,981,24,999,2,-19.000000,24.000000,-1.000000,2.000000
38772,2026-07-30T09:27:00.040+08:00,432,0.864000,0,995,24,1003,2,-5.000000,24.000000,3.000000,2.000000
38773,2026-07-30T09:27:00.040+08:00,433,0.866000,0,1015,24,1002,2,15.000000,24.000000,2.000000,2.000000
38774,2026-07-30T09:27:00.042+08:00,434,0.868000,0,1016,24,998,2,16.000000,24.000000,-2.000000,2.000000
38775,2026-07-30T09:27:00.053+08:00,435,0.870000,0,998,24,996,2,-2.000000,24.000000,-4.000000,2.000000
38776,2026-07-30T09:27:00.053+08:00,436,0.872000,0,986,24,998,2,-14.000000,24.000000,-2.000000,2.000000
38777,2026-07-30T09:27:00.053+08:00,437,0.874000,0,994,22,1002,2,-6.000000,22.000000,2.000000,2.000000
38778,2026-07-30T09:27:00.055+08:00,438,0.876000,0,1004,22,1003,2,4.000000,22.000000,3.000000,2.000000
38779,2026-07-30T09:27:00.055+08:00,439,0.878000,0,1003,22,1001,2,3.000000,22.000000,1.000000,2.000000
38780,2026-07-30T09:27:00.055+08:00,440,0.880000,0,997,22,998,2,-3.000000,22.000000,-2.000000,2.000000
38781,2026-07-30T09:27:00.058+08:00,441,0.882000,0,999,22,997,2,-1.000000,22.000000,-3.000000,2.000000
38782,2026-07-30T09:27:00.058+08:00,442,0.884000,0,1003,22,999,2,3.000000,22.000000,-1.000000,2.000000
38783,2026-07-30T09:27:00.065+08:00,443,0.886000,0,999,22,1000,2,-1.000000,22.000000,0.000000,2.000000
38784,2026-07-30T09:27:00.068+08:00,444,0.888000,0,994,22,999,2,-6.000000,22.000000,-1.000000,2.000000
38785,2026-07-30T09:27:00.068+08:00,445,0.890000,0,999,20,999,2,-1.000000,20.000000,-1.000000,2.000000
38786,2026-07-30T09:27:00.068+08:00,446,0.892000,0,1008,20,1000,2,8.000000,20.000000,0.000000,2.000000
38787,2026-07-30T09:27:00.072+08:00,447,0.894000,0,1006,20,1002,2,6.000000,20.000000,2.000000,2.000000
38788,2026-07-30T09:27:00.072+08:00,448,0.896000,0,994,20,1001,2,-6.000000,20.000000,1.000000,2.000000
38789,2026-07-30T09:27:00.072+08:00,449,0.898000,0,988,20,998,2,-12.000000,20.000000,-2.000000,2.000000
38790,2026-07-30T09:27:00.082+08:00,450,0.900000,0,995,20,996,2,-5.000000,20.000000,-4.000000,2.000000
38791,2026-07-30T09:27:00.082+08:00,451,0.902000,0,1004,20,998,2,4.000000,20.000000,-2.000000,2.000000
38792,2026-07-30T09:27:00.082+08:00,452,0.904000,0,1008,20,1002,2,8.000000,20.000000,2.000000,2.000000
38793,2026-07-30T09:27:00.085+08:00,453,0.906000,0,1006,20,1004,2,6.000000,20.000000,4.000000,2.000000
38794,2026-07-30T09:27:00.085+08:00,454,0.908000,0,1002,20,1001,2,2.000000,20.000000,1.000000,2.000000
38795,2026-07-30T09:27:00.085+08:00,455,0.910000,0,995,20,997,2,-5.000000,20.000000,-3.000000,2.000000
38796,2026-07-30T09:27:00.087+08:00,456,0.912000,0,987,18,996,2,-13.000000,18.000000,-4.000000,2.000000
38797,2026-07-30T09:27:00.087+08:00,457,0.914000,0,987,18,999,2,-13.000000,18.000000,-1.000000,2.000000
38798,2026-07-30T09:27:00.097+08:00,458,0.916000,0,1002,18,1002,2,2.000000,18.000000,2.000000,2.000000
38799,2026-07-30T09:27:00.097+08:00,459,0.918000,0,1019,18,1001,2,19.000000,18.000000,1.000000,2.000000
38800,2026-07-30T09:27:00.097+08:00,460,0.920000,0,1018,18,998,2,18.000000,18.000000,-2.000000,2.000000
38801,2026-07-30T09:27:00.100+08:00,461,0.922000,0,996,18,998,2,-4.000000,18.000000,-2.000000,2.000000
38802,2026-07-30T09:27:00.100+08:00,462,0.924000,0,976,18,1000,2,-24.000000,18.000000,0.000000,2.000000
38803,2026-07-30T09:27:00.100+08:00,463,0.926000,0,982,18,1002,2,-18.000000,18.000000,2.000000,2.000000
38804,2026-07-30T09:27:00.102+08:00,464,0.928000,0,1004,16,1001,2,4.000000,16.000000,1.000000,2.000000
38805,2026-07-30T09:27:00.112+08:00,465,0.930000,0,1018,16,997,2,18.000000,16.000000,-3.000000,2.000000
38806,2026-07-30T09:27:00.112+08:00,466,0.932000,0,1012,16,996,2,12.000000,16.000000,-4.000000,2.000000
38807,2026-07-30T09:27:00.112+08:00,467,0.934000,0,999,14,999,2,-1.000000,14.000000,-1.000000,2.000000
38808,2026-07-30T09:27:00.115+08:00,468,0.936000,0,993,14,1003,2,-7.000000,14.000000,3.000000,2.000000
38809,2026-07-30T09:27:00.115+08:00,469,0.938000,0,992,14,1002,2,-8.000000,14.000000,2.000000,2.000000
38810,2026-07-30T09:27:00.115+08:00,470,0.940000,0,991,14,998,2,-9.000000,14.000000,-2.000000,2.000000
38811,2026-07-30T09:27:00.117+08:00,471,0.942000,0,994,14,996,2,-6.000000,14.000000,-4.000000,2.000000
38812,2026-07-30T09:27:00.117+08:00,472,0.944000,0,1009,12,999,2,9.000000,12.000000,-1.000000,2.000000
38813,2026-07-30T09:27:00.125+08:00,473,0.946000,0,1021,12,1001,2,21.000000,12.000000,1.000000,2.000000
38814,2026-07-30T09:27:00.128+08:00,474,0.948000,0,1009,12,1000,2,9.000000,12.000000,0.000000,2.000000
38815,2026-07-30T09:27:00.128+08:00,475,0.950000,0,979,12,998,2,-21.000000,12.000000,-2.000000,2.000000
38816,2026-07-30T09:27:00.128+08:00,476,0.952000,0,970,12,999,2,-30.000000,12.000000,-1.000000,2.000000
38817,2026-07-30T09:27:00.132+08:00,477,0.954000,0,1000,12,1002,2,0.000000,12.000000,2.000000,2.000000
38818,2026-07-30T09:27:00.132+08:00,478,0.956000,0,1031,12,1002,2,31.000000,12.000000,2.000000,2.000000
38819,2026-07-30T09:27:00.132+08:00,479,0.958000,0,1023,12,998,2,23.000000,12.000000,-2.000000,2.000000
38820,2026-07-30T09:27:00.143+08:00,480,0.960000,0,985,12,995,2,-15.000000,12.000000,-5.000000,2.000000
38821,2026-07-30T09:27:00.143+08:00,481,0.962000,0,967,14,997,2,-33.000000,14.000000,-3.000000,2.000000
38822,2026-07-30T09:27:00.143+08:00,482,0.964000,0,990,14,1002,2,-10.000000,14.000000,2.000000,2.000000
38823,2026-07-30T09:27:00.145+08:00,483,0.966000,0,1023,14,1003,2,23.000000,14.000000,3.000000,2.000000
38824,2026-07-30T09:27:00.145+08:00,484,0.968000,0,1022,14,1001,2,22.000000,14.000000,1.000000,2.000000
38825,2026-07-30T09:27:00.145+08:00,485,0.970000,0,992,14,998,2,-8.000000,14.000000,-2.000000,2.000000
38826,2026-07-30T09:27:00.148+08:00,486,0.972000,0,978,14,998,2,-22.000000,14.000000,-2.000000,2.000000
38827,2026-07-30T09:27:00.148+08:00,487,0.974000,0,996,14,999,2,-4.000000,14.000000,-1.000000,2.000000
38828,2026-07-30T09:27:00.155+08:00,488,0.976000,0,1017,14,998,2,17.000000,14.000000,-2.000000,2.000000
38829,2026-07-30T09:27:00.158+08:00,489,0.978000,0,1006,14,998,2,6.000000,14.000000,-2.000000,2.000000
38830,2026-07-30T09:27:00.158+08:00,490,0.980000,0,983,14,1002,2,-17.000000,14.000000,2.000000,2.000000
38831,2026-07-30T09:27:00.158+08:00,491,0.982000,0,987,14,1004,2,-13.000000,14.000000,4.000000,2.000000
38832,2026-07-30T09:27:00.162+08:00,492,0.984000,0,1014,14,1001,2,14.000000,14.000000,1.000000,2.000000
38833,2026-07-30T09:27:00.162+08:00,493,0.986000,0,1021,14,996,2,21.000000,14.000000,-4.000000,2.000000
38834,2026-07-30T09:27:00.162+08:00,494,0.988000,0,996,14,995,2,-4.000000,14.000000,-5.000000,2.000000
38835,2026-07-30T09:27:00.173+08:00,495,0.990000,0,974,14,999,2,-26.000000,14.000000,-1.000000,2.000000
38836,2026-07-30T09:27:00.173+08:00,496,0.992000,0,986,14,1003,2,-14.000000,14.000000,3.000000,2.000000
38837,2026-07-30T09:27:00.173+08:00,497,0.994000,0,1014,14,1002,2,14.000000,14.000000,2.000000,2.000000
38838,2026-07-30T09:27:00.175+08:00,498,0.996000,0,1023,16,999,2,23.000000,16.000000,-1.000000,2.000000
38839,2026-07-30T09:27:00.175+08:00,499,0.998000,0,1006,14,998,2,6.000000,14.000000,-2.000000,2.000000
38840,2026-07-30T09:27:00.175+08:00,500,1.000000,0,985,14,999,2,-15.000000,14.000000,-1.000000,2.000000
38841,2026-07-30T09:27:00.178+08:00,501,1.002000,0,979,16,1000,2,-21.000000,16.000000,0.000000,2.000000
38842,2026-07-30T09:27:00.178+08:00,502,1.004000,0,989,14,1000,2,-11.000000,14.000000,0.000000,2.000000
38843,2026-07-30T09:27:00.186+08:00,503,1.006000,0,1009,16,999,2,9.000000,16.000000,-1.000000,2.000000
38844,2026-07-30T09:27:00.188+08:00,504,1.008000,0,1024,16,1000,2,24.000000,16.000000,0.000000,2.000000
38845,2026-07-30T09:27:00.188+08:00,505,1.010000,0,1017,16,1001,2,17.000000,16.000000,1.000000,2.000000
38846,2026-07-30T09:27:00.188+08:00,506,1.012000,0,991,16,999,2,-9.000000,16.000000,-1.000000,2.000000
38847,2026-07-30T09:27:00.192+08:00,507,1.014000,0,973,16,997,2,-27.000000,16.000000,-3.000000,2.000000
38848,2026-07-30T09:27:00.192+08:00,508,1.016000,0,984,16,999,2,-16.000000,16.000000,-1.000000,2.000000
38849,2026-07-30T09:27:00.192+08:00,509,1.018000,0,1011,16,1003,2,11.000000,16.000000,3.000000,2.000000
38850,2026-07-30T09:27:00.202+08:00,510,1.020000,0,1021,16,1003,2,21.000000,16.000000,3.000000,2.000000
38851,2026-07-30T09:27:00.202+08:00,511,1.022000,0,1005,16,998,2,5.000000,16.000000,-2.000000,2.000000
38852,2026-07-30T09:27:00.202+08:00,512,1.024000,0,988,16,994,2,-12.000000,16.000000,-6.000000,2.000000
38853,2026-07-30T09:27:00.205+08:00,513,1.026000,0,990,16,997,2,-10.000000,16.000000,-3.000000,2.000000
38854,2026-07-30T09:27:00.205+08:00,514,1.028000,0,1004,16,1004,2,4.000000,16.000000,4.000000,2.000000
38855,2026-07-30T09:27:00.205+08:00,515,1.030000,0,1006,16,1005,2,6.000000,16.000000,5.000000,2.000000
38856,2026-07-30T09:27:00.208+08:00,516,1.032000,0,994,16,1000,2,-6.000000,16.000000,0.000000,2.000000
38857,2026-07-30T09:27:00.208+08:00,517,1.034000,0,990,16,995,2,-10.000000,16.000000,-5.000000,2.000000
38858,2026-07-30T09:27:00.215+08:00,518,1.036000,0,1003,18,995,2,3.000000,18.000000,-5.000000,2.000000
38859,2026-07-30T09:27:00.218+08:00,519,1.038000,0,1014,18,1000,2,14.000000,18.000000,0.000000,2.000000
38860,2026-07-30T09:27:00.218+08:00,520,1.040000,0,1004,18,1003,2,4.000000,18.000000,3.000000,2.000000
38861,2026-07-30T09:27:00.218+08:00,521,1.042000,0,985,18,1002,2,-15.000000,18.000000,2.000000,2.000000
38862,2026-07-30T09:27:00.222+08:00,522,1.044000,0,986,18,999,2,-14.000000,18.000000,-1.000000,2.000000
38863,2026-07-30T09:27:00.222+08:00,523,1.046000,0,1006,18,997,2,6.000000,18.000000,-3.000000,2.000000
38864,2026-07-30T09:27:00.222+08:00,524,1.048000,0,1016,18,998,2,16.000000,18.000000,-2.000000,2.000000
38865,2026-07-30T09:27:00.233+08:00,525,1.050000,0,1003,18,1000,2,3.000000,18.000000,0.000000,2.000000
38866,2026-07-30T09:27:00.233+08:00,526,1.052000,0,984,18,1000,2,-16.000000,18.000000,0.000000,2.000000
38867,2026-07-30T09:27:00.233+08:00,527,1.054000,0,987,18,1000,2,-13.000000,18.000000,0.000000,2.000000
38868,2026-07-30T09:27:00.235+08:00,528,1.056000,0,1009,18,1000,2,9.000000,18.000000,0.000000,2.000000
38869,2026-07-30T09:27:00.235+08:00,529,1.058000,0,1019,18,999,2,19.000000,18.000000,-1.000000,2.000000
38870,2026-07-30T09:27:00.235+08:00,530,1.060000,0,1003,18,998,2,3.000000,18.000000,-2.000000,2.000000
38871,2026-07-30T09:27:00.238+08:00,531,1.062000,0,981,18,1000,2,-19.000000,18.000000,0.000000,2.000000
38872,2026-07-30T09:27:00.238+08:00,532,1.064000,0,981,18,1002,2,-19.000000,18.000000,2.000000,2.000000
38873,2026-07-30T09:27:00.248+08:00,533,1.066000,0,1005,18,1002,2,5.000000,18.000000,2.000000,2.000000
38874,2026-07-30T09:27:00.248+08:00,534,1.068000,0,1019,18,997,2,19.000000,18.000000,-3.000000,2.000000
38875,2026-07-30T09:27:00.248+08:00,535,1.070000,0,1010,18,994,2,10.000000,18.000000,-6.000000,2.000000
38876,2026-07-30T09:27:00.249+08:00,536,1.072000,0,992,18,997,2,-8.000000,18.000000,-3.000000,2.000000
38877,2026-07-30T09:27:00.249+08:00,537,1.074000,0,988,18,1004,2,-12.000000,18.000000,4.000000,2.000000
38878,2026-07-30T09:27:00.249+08:00,538,1.076000,0,998,18,1007,2,-2.000000,18.000000,7.000000,2.000000
38879,2026-07-30T09:27:00.251+08:00,539,1.078000,0,1004,18,1001,2,4.000000,18.000000,1.000000,2.000000
38880,2026-07-30T09:27:00.263+08:00,540,1.080000,0,997,18,993,2,-3.000000,18.000000,-7.000000,2.000000
38881,2026-07-30T09:27:00.263+08:00,541,1.082000,0,990,18,992,2,-10.000000,18.000000,-8.000000,2.000000
38882,2026-07-30T09:27:00.263+08:00,542,1.084000,0,1004,18,999,2,4.000000,18.000000,-1.000000,2.000000
38883,2026-07-30T09:27:00.266+08:00,543,1.086000,0,1023,20,1006,2,23.000000,20.000000,6.000000,2.000000
38884,2026-07-30T09:27:00.266+08:00,544,1.088000,0,1012,20,1005,2,12.000000,20.000000,5.000000,2.000000
38885,2026-07-30T09:27:00.266+08:00,545,1.090000,0,974,20,999,2,-26.000000,20.000000,-1.000000,2.000000
38886,2026-07-30T09:27:00.268+08:00,546,1.092000,0,962,20,995,2,-38.000000,20.000000,-5.000000,2.000000
38887,2026-07-30T09:27:00.268+08:00,547,1.094000,0,1002,20,997,2,2.000000,20.000000,-3.000000,2.000000
38888,2026-07-30T09:27:00.276+08:00,548,1.096000,0,1045,20,1000,2,45.000000,20.000000,0.000000,2.000000
38889,2026-07-30T09:27:00.279+08:00,549,1.098000,0,1029,22,1001,2,29.000000,22.000000,1.000000,2.000000
38890,2026-07-30T09:27:00.279+08:00,550,1.100000,0,974,22,999,2,-26.000000,22.000000,-1.000000,2.000000
38891,2026-07-30T09:27:00.279+08:00,551,1.102000,0,955,22,999,2,-45.000000,22.000000,-1.000000,2.000000
38892,2026-07-30T09:27:00.283+08:00,552,1.104000,0,995,22,1001,2,-5.000000,22.000000,1.000000,2.000000
38893,2026-07-30T09:27:00.283+08:00,553,1.106000,0,1034,22,1002,2,34.000000,22.000000,2.000000,2.000000
38894,2026-07-30T09:27:00.283+08:00,554,1.108000,0,1022,24,999,2,22.000000,24.000000,-1.000000,2.000000
38895,2026-07-30T09:27:00.292+08:00,555,1.110000,0,985,24,997,2,-15.000000,24.000000,-3.000000,2.000000
38896,2026-07-30T09:27:00.292+08:00,556,1.112000,0,975,24,997,2,-25.000000,24.000000,-3.000000,2.000000
38897,2026-07-30T09:27:00.292+08:00,557,1.114000,0,998,24,1000,2,-2.000000,24.000000,0.000000,2.000000
38898,2026-07-30T09:27:00.295+08:00,558,1.116000,0,1017,24,1002,2,17.000000,24.000000,2.000000,2.000000
38899,2026-07-30T09:27:00.295+08:00,559,1.118000,0,1011,24,1001,2,11.000000,24.000000,1.000000,2.000000
38900,2026-07-30T09:27:00.295+08:00,560,1.120000,0,994,24,999,2,-6.000000,24.000000,-1.000000,2.000000
38901,2026-07-30T09:27:00.298+08:00,561,1.122000,0,987,24,999,2,-13.000000,24.000000,-1.000000,2.000000
38902,2026-07-30T09:27:00.298+08:00,562,1.124000,0,992,24,1000,2,-8.000000,24.000000,0.000000,2.000000
38903,2026-07-30T09:27:00.307+08:00,563,1.126000,0,1003,24,1000,2,3.000000,24.000000,0.000000,2.000000
38904,2026-07-30T09:27:00.307+08:00,564,1.128000,0,1011,24,999,2,11.000000,24.000000,-1.000000,2.000000
38905,2026-07-30T09:27:00.307+08:00,565,1.130000,0,1008,24,999,2,8.000000,24.000000,-1.000000,2.000000
38906,2026-07-30T09:27:00.309+08:00,566,1.132000,0,995,24,1000,2,-5.000000,24.000000,0.000000,2.000000
38907,2026-07-30T09:27:00.309+08:00,567,1.134000,0,987,24,999,2,-13.000000,24.000000,-1.000000,2.000000
38908,2026-07-30T09:27:00.309+08:00,568,1.136000,0,993,24,999,2,-7.000000,24.000000,-1.000000,2.000000
38909,2026-07-30T09:27:00.311+08:00,569,1.138000,0,1007,24,1000,2,7.000000,24.000000,0.000000,2.000000
38910,2026-07-30T09:27:00.323+08:00,570,1.140000,0,1012,24,1002,2,12.000000,24.000000,2.000000,2.000000
38911,2026-07-30T09:27:00.323+08:00,571,1.142000,0,1002,24,1001,2,2.000000,24.000000,1.000000,2.000000
38912,2026-07-30T09:27:00.323+08:00,572,1.144000,0,989,24,997,2,-11.000000,24.000000,-3.000000,2.000000
38913,2026-07-30T09:27:00.325+08:00,573,1.146000,0,989,24,995,2,-11.000000,24.000000,-5.000000,2.000000
38914,2026-07-30T09:27:00.325+08:00,574,1.148000,0,1001,24,998,2,1.000000,24.000000,-2.000000,2.000000
38915,2026-07-30T09:27:00.325+08:00,575,1.150000,0,1011,24,1003,2,11.000000,24.000000,3.000000,2.000000
38916,2026-07-30T09:27:00.328+08:00,576,1.152000,0,1006,24,1004,2,6.000000,24.000000,4.000000,2.000000
38917,2026-07-30T09:27:00.328+08:00,577,1.154000,0,992,24,1001,2,-8.000000,24.000000,1.000000,2.000000
38918,2026-07-30T09:27:00.335+08:00,578,1.156000,0,987,24,997,2,-13.000000,24.000000,-3.000000,2.000000
38919,2026-07-30T09:27:00.338+08:00,579,1.158000,0,999,24,996,2,-1.000000,24.000000,-4.000000,2.000000
38920,2026-07-30T09:27:00.338+08:00,580,1.160000,0,1013,24,998,2,13.000000,24.000000,-2.000000,2.000000
38921,2026-07-30T09:27:00.338+08:00,581,1.162000,0,1010,24,1001,2,10.000000,24.000000,1.000000,2.000000
38922,2026-07-30T09:27:00.342+08:00,582,1.164000,0,994,24,1002,2,-6.000000,24.000000,2.000000,2.000000
38923,2026-07-30T09:27:00.342+08:00,583,1.166000,0,986,24,1000,2,-14.000000,24.000000,0.000000,2.000000
38924,2026-07-30T09:27:00.342+08:00,584,1.168000,0,994,24,998,2,-6.000000,24.000000,-2.000000,2.000000
38925,2026-07-30T09:27:00.353+08:00,585,1.170000,0,1005,24,999,2,5.000000,24.000000,-1.000000,2.000000
38926,2026-07-30T09:27:00.353+08:00,586,1.172000,0,1007,24,1000,2,7.000000,24.000000,0.000000,2.000000
38927,2026-07-30T09:27:00.353+08:00,587,1.174000,0,1004,24,999,2,4.000000,24.000000,-1.000000,2.000000
38928,2026-07-30T09:27:00.356+08:00,588,1.176000,0,1002,24,998,2,2.000000,24.000000,-2.000000,2.000000
38929,2026-07-30T09:27:00.356+08:00,589,1.178000,0,1000,24,998,2,0.000000,24.000000,-2.000000,2.000000
38930,2026-07-30T09:27:00.356+08:00,590,1.180000,0,992,24,1001,2,-8.000000,24.000000,1.000000,2.000000
38931,2026-07-30T09:27:00.358+08:00,591,1.182000,0,984,24,1002,2,-16.000000,24.000000,2.000000,2.000000
38932,2026-07-30T09:27:00.358+08:00,592,1.184000,0,992,24,1001,2,-8.000000,24.000000,1.000000,2.000000
38933,2026-07-30T09:27:00.367+08:00,593,1.186000,0,1013,24,999,2,13.000000,24.000000,-1.000000,2.000000
38934,2026-07-30T09:27:00.367+08:00,594,1.188000,0,1025,24,997,2,25.000000,24.000000,-3.000000,2.000000
38935,2026-07-30T09:27:00.367+08:00,595,1.190000,0,1011,24,997,2,11.000000,24.000000,-3.000000,2.000000
38936,2026-07-30T09:27:00.370+08:00,596,1.192000,0,982,24,999,2,-18.000000,24.000000,-1.000000,2.000000
38937,2026-07-30T09:27:00.370+08:00,597,1.194000,0,969,24,1002,2,-31.000000,24.000000,2.000000,2.000000
38938,2026-07-30T09:27:00.370+08:00,598,1.196000,0,986,24,1003,2,-14.000000,24.000000,3.000000,2.000000
38939,2026-07-30T09:27:00.372+08:00,599,1.198000,0,1015,24,1000,2,15.000000,24.000000,0.000000,2.000000
38940,2026-07-30T09:27:00.382+08:00,600,1.200000,0,1029,24,997,2,29.000000,24.000000,-3.000000,2.000000
38941,2026-07-30T09:27:00.382+08:00,601,1.202000,0,1018,24,996,2,18.000000,24.000000,-4.000000,2.000000
38942,2026-07-30T09:27:00.382+08:00,602,1.204000,0,996,24,998,2,-4.000000,24.000000,-2.000000,2.000000
38943,2026-07-30T09:27:00.385+08:00,603,1.206000,0,977,24,1001,2,-23.000000,24.000000,1.000000,2.000000
38944,2026-07-30T09:27:00.385+08:00,604,1.208000,0,969,24,1002,2,-31.000000,24.000000,2.000000,2.000000
38945,2026-07-30T09:27:00.385+08:00,605,1.210000,0,981,26,1001,2,-19.000000,26.000000,1.000000,2.000000
38946,2026-07-30T09:27:00.388+08:00,606,1.212000,0,1019,24,999,2,19.000000,24.000000,-1.000000,2.000000
38947,2026-07-30T09:27:00.388+08:00,607,1.214000,0,1050,26,998,2,50.000000,26.000000,-2.000000,2.000000
38948,2026-07-30T09:27:00.398+08:00,608,1.216000,0,1033,26,998,2,33.000000,26.000000,-2.000000,2.000000
38949,2026-07-30T09:27:00.398+08:00,609,1.218000,0,976,26,999,2,-24.000000,26.000000,-1.000000,2.000000
38950,2026-07-30T09:27:00.398+08:00,610,1.220000,0,940,26,999,2,-60.000000,26.000000,-1.000000,2.000000
38951,2026-07-30T09:27:00.400+08:00,611,1.222000,0,966,26,1000,2,-34.000000,26.000000,0.000000,2.000000
38952,2026-07-30T09:27:00.400+08:00,612,1.224000,0,1024,26,1001,2,24.000000,26.000000,1.000000,2.000000
38953,2026-07-30T09:27:00.400+08:00,613,1.226000,0,1052,28,1000,2,52.000000,28.000000,0.000000,2.000000
38954,2026-07-30T09:27:00.402+08:00,614,1.228000,0,1024,28,999,2,24.000000,28.000000,-1.000000,2.000000
38955,2026-07-30T09:27:00.413+08:00,615,1.230000,0,976,28,999,2,-24.000000,28.000000,-1.000000,2.000000
38956,2026-07-30T09:27:00.413+08:00,616,1.232000,0,963,28,1000,2,-37.000000,28.000000,0.000000,2.000000
38957,2026-07-30T09:27:00.413+08:00,617,1.234000,0,992,28,999,2,-8.000000,28.000000,-1.000000,2.000000
38958,2026-07-30T09:27:00.415+08:00,618,1.236000,0,1019,28,998,2,19.000000,28.000000,-2.000000,2.000000
38959,2026-07-30T09:27:00.415+08:00,619,1.238000,0,1010,28,1000,2,10.000000,28.000000,0.000000,2.000000
38960,2026-07-30T09:27:00.415+08:00,620,1.240000,0,990,28,1002,2,-10.000000,28.000000,2.000000,2.000000
38961,2026-07-30T09:27:00.418+08:00,621,1.242000,0,995,28,1002,2,-5.000000,28.000000,2.000000,2.000000
38962,2026-07-30T09:27:00.418+08:00,622,1.244000,0,1015,28,999,2,15.000000,28.000000,-1.000000,2.000000
38963,2026-07-30T09:27:00.426+08:00,623,1.246000,0,1012,28,997,2,12.000000,28.000000,-3.000000,2.000000
38964,2026-07-30T09:27:00.429+08:00,624,1.248000,0,985,28,997,2,-15.000000,28.000000,-3.000000,2.000000
38965,2026-07-30T09:27:00.429+08:00,625,1.250000,0,972,28,999,2,-28.000000,28.000000,-1.000000,2.000000
38966,2026-07-30T09:27:00.429+08:00,626,1.252000,0,996,28,1003,2,-4.000000,28.000000,3.000000,2.000000
38967,2026-07-30T09:27:00.433+08:00,627,1.254000,0,1026,28,1003,2,26.000000,28.000000,3.000000,2.000000
38968,2026-07-30T09:27:00.433+08:00,628,1.256000,0,1024,28,999,2,24.000000,28.000000,-1.000000,2.000000
38969,2026-07-30T09:27:00.433+08:00,629,1.258000,0,992,28,996,2,-8.000000,28.000000,-4.000000,2.000000
38970,2026-07-30T09:27:00.443+08:00,630,1.260000,0,971,28,997,2,-29.000000,28.000000,-3.000000,2.000000
38971,2026-07-30T09:27:00.443+08:00,631,1.262000,0,987,28,1001,2,-13.000000,28.000000,1.000000,2.000000
38972,2026-07-30T09:27:00.443+08:00,632,1.264000,0,1017,28,1002,2,17.000000,28.000000,2.000000,2.000000
38973,2026-07-30T09:27:00.445+08:00,633,1.266000,0,1023,28,1000,2,23.000000,28.000000,0.000000,2.000000
38974,2026-07-30T09:27:00.445+08:00,634,1.268000,0,996,28,998,2,-4.000000,28.000000,-2.000000,2.000000
38975,2026-07-30T09:27:00.445+08:00,635,1.270000,0,972,28,998,2,-28.000000,28.000000,-2.000000,2.000000
38976,2026-07-30T09:27:00.448+08:00,636,1.272000,0,985,28,1000,2,-15.000000,28.000000,0.000000,2.000000
38977,2026-07-30T09:27:00.448+08:00,637,1.274000,0,1021,28,1001,2,21.000000,28.000000,1.000000,2.000000
38978,2026-07-30T09:27:00.456+08:00,638,1.276000,0,1032,28,1000,2,32.000000,28.000000,0.000000,2.000000
38979,2026-07-30T09:27:00.458+08:00,639,1.278000,0,1004,28,998,2,4.000000,28.000000,-2.000000,2.000000
38980,2026-07-30T09:27:00.458+08:00,640,1.280000,0,969,28,997,2,-31.000000,28.000000,-3.000000,2.000000
38981,2026-07-30T09:27:00.458+08:00,641,1.282000,0,966,28,999,2,-34.000000,28.000000,-1.000000,2.000000
38982,2026-07-30T09:27:00.462+08:00,642,1.284000,0,996,28,1002,2,-4.000000,28.000000,2.000000,2.000000
38983,2026-07-30T09:27:00.462+08:00,643,1.286000,0,1030,30,1002,2,30.000000,30.000000,2.000000,2.000000
38984,2026-07-30T09:27:00.462+08:00,644,1.288000,0,1035,30,1000,2,35.000000,30.000000,0.000000,2.000000
38985,2026-07-30T09:27:00.472+08:00,645,1.290000,0,1009,30,998,2,9.000000,30.000000,-2.000000,2.000000
38986,2026-07-30T09:27:00.472+08:00,646,1.292000,0,974,30,997,2,-26.000000,30.000000,-3.000000,2.000000
38987,2026-07-30T09:27:00.472+08:00,647,1.294000,0,963,30,997,2,-37.000000,30.000000,-3.000000,2.000000
38988,2026-07-30T09:27:00.475+08:00,648,1.296000,0,985,30,1000,2,-15.000000,30.000000,0.000000,2.000000
38989,2026-07-30T09:27:00.475+08:00,649,1.298000,0,1019,30,1003,2,19.000000,30.000000,3.000000,2.000000
38990,2026-07-30T09:27:00.475+08:00,650,1.300000,0,1032,30,1002,2,32.000000,30.000000,2.000000,2.000000
38991,2026-07-30T09:27:00.478+08:00,651,1.302000,0,1016,32,997,2,16.000000,32.000000,-3.000000,2.000000
38992,2026-07-30T09:27:00.478+08:00,652,1.304000,0,989,30,995,2,-11.000000,30.000000,-5.000000,2.000000
38993,2026-07-30T09:27:00.488+08:00,653,1.306000,0,975,32,998,2,-25.000000,32.000000,-2.000000,2.000000
38994,2026-07-30T09:27:00.488+08:00,654,1.308000,0,985,32,1002,2,-15.000000,32.000000,2.000000,2.000000
38995,2026-07-30T09:27:00.488+08:00,655,1.310000,0,1005,32,1001,2,5.000000,32.000000,1.000000,2.000000
38996,2026-07-30T09:27:00.490+08:00,656,1.312000,0,1014,32,999,2,14.000000,32.000000,-1.000000,2.000000
38997,2026-07-30T09:27:00.490+08:00,657,1.314000,0,1007,32,999,2,7.000000,32.000000,-1.000000,2.000000
38998,2026-07-30T09:27:00.490+08:00,658,1.316000,0,996,32,1001,2,-4.000000,32.000000,1.000000,2.000000
38999,2026-07-30T09:27:00.492+08:00,659,1.318000,0,996,30,1000,2,-4.000000,30.000000,0.000000,2.000000
39000,2026-07-30T09:27:00.503+08:00,660,1.320000,0,1000,30,997,2,0.000000,30.000000,-3.000000,2.000000
39001,2026-07-30T09:27:00.503+08:00,661,1.322000,0,1000,30,997,2,0.000000,30.000000,-3.000000,2.000000
39002,2026-07-30T09:27:00.503+08:00,662,1.324000,0,994,30,1001,2,-6.000000,30.000000,1.000000,2.000000
39003,2026-07-30T09:27:00.506+08:00,663,1.326000,0,995,30,1003,2,-5.000000,30.000000,3.000000,2.000000
39004,2026-07-30T09:27:00.506+08:00,664,1.328000,0,1003,30,1001,2,3.000000,30.000000,1.000000,2.000000
39005,2026-07-30T09:27:00.506+08:00,665,1.330000,0,1008,30,996,2,8.000000,30.000000,-4.000000,2.000000
39006,2026-07-30T09:27:00.508+08:00,666,1.332000,0,1004,30,996,2,4.000000,30.000000,-4.000000,2.000000
39007,2026-07-30T09:27:00.508+08:00,667,1.334000,0,995,30,1000,2,-5.000000,30.000000,0.000000,2.000000
39008,2026-07-30T09:27:00.517+08:00,668,1.336000,0,992,30,1004,2,-8.000000,30.000000,4.000000,2.000000
39009,2026-07-30T09:27:00.517+08:00,669,1.338000,0,996,30,1002,2,-4.000000,30.000000,2.000000,2.000000
39010,2026-07-30T09:27:00.517+08:00,670,1.340000,0,1003,30,998,2,3.000000,30.000000,-2.000000,2.000000
39011,2026-07-30T09:27:00.519+08:00,671,1.342000,0,1006,30,995,2,6.000000,30.000000,-5.000000,2.000000
39012,2026-07-30T09:27:00.519+08:00,672,1.344000,0,1002,30,997,2,2.000000,30.000000,-3.000000,2.000000
39013,2026-07-30T09:27:00.519+08:00,673,1.346000,0,996,30,1003,2,-4.000000,30.000000,3.000000,2.000000
39014,2026-07-30T09:27:00.521+08:00,674,1.348000,0,994,28,1005,2,-6.000000,28.000000,5.000000,2.000000
39015,2026-07-30T09:27:00.532+08:00,675,1.350000,0,997,28,1001,2,-3.000000,28.000000,1.000000,2.000000
39016,2026-07-30T09:27:00.532+08:00,676,1.352000,0,1002,28,994,2,2.000000,28.000000,-6.000000,2.000000
39017,2026-07-30T09:27:00.532+08:00,677,1.354000,0,1003,28,994,2,3.000000,28.000000,-6.000000,2.000000
39018,2026-07-30T09:27:00.535+08:00,678,1.356000,0,999,28,1000,2,-1.000000,28.000000,0.000000,2.000000
39019,2026-07-30T09:27:00.535+08:00,679,1.358000,0,997,26,1005,2,-3.000000,26.000000,5.000000,2.000000
39020,2026-07-30T09:27:00.535+08:00,680,1.360000,0,1000,26,1004,2,0.000000,26.000000,4.000000,2.000000
39021,2026-07-30T09:27:00.537+08:00,681,1.362000,0,1004,26,998,2,4.000000,26.000000,-2.000000,2.000000
39022,2026-07-30T09:27:00.537+08:00,682,1.364000,0,1002,26,993,2,2.000000,26.000000,-7.000000,2.000000
39023,2026-07-30T09:27:00.548+08:00,683,1.366000,0,993,26,995,2,-7.000000,26.000000,-5.000000,2.000000
39024,2026-07-30T09:27:00.548+08:00,684,1.368000,0,989,26,1003,2,-11.000000,26.000000,3.000000,2.000000
39025,2026-07-30T09:27:00.548+08:00,685,1.370000,0,997,26,1007,2,-3.000000,26.000000,7.000000,2.000000
39026,2026-07-30T09:27:00.550+08:00,686,1.372000,0,1010,26,1001,2,10.000000,26.000000,1.000000,2.000000
39027,2026-07-30T09:27:00.550+08:00,687,1.374000,0,1014,26,993,2,14.000000,26.000000,-7.000000,2.000000
39028,2026-07-30T09:27:00.550+08:00,688,1.376000,0,1004,26,994,2,4.000000,26.000000,-6.000000,2.000000
39029,2026-07-30T09:27:00.552+08:00,689,1.378000,0,988,26,1003,2,-12.000000,26.000000,3.000000,2.000000
39030,2026-07-30T09:27:00.563+08:00,690,1.380000,0,983,26,1008,2,-17.000000,26.000000,8.000000,2.000000
39031,2026-07-30T09:27:00.563+08:00,691,1.382000,0,994,26,1001,2,-6.000000,26.000000,1.000000,2.000000
39032,2026-07-30T09:27:00.563+08:00,692,1.384000,0,1010,26,992,2,10.000000,26.000000,-8.000000,2.000000
39033,2026-07-30T09:27:00.565+08:00,693,1.386000,0,1015,26,993,2,15.000000,26.000000,-7.000000,2.000000
39034,2026-07-30T09:27:00.565+08:00,694,1.388000,0,1006,26,1002,2,6.000000,26.000000,2.000000,2.000000
39035,2026-07-30T09:27:00.565+08:00,695,1.390000,0,992,26,1007,2,-8.000000,26.000000,7.000000,2.000000
39036,2026-07-30T09:27:00.568+08:00,696,1.392000,0,986,26,1003,2,-14.000000,26.000000,3.000000,2.000000
39037,2026-07-30T09:27:00.568+08:00,697,1.394000,0,994,26,995,2,-6.000000,26.000000,-5.000000,2.000000
39038,2026-07-30T09:27:00.576+08:00,698,1.396000,0,1005,26,994,2,5.000000,26.000000,-6.000000,2.000000
39039,2026-07-30T09:27:00.579+08:00,699,1.398000,0,1010,26,1000,2,10.000000,26.000000,0.000000,2.000000
39040,2026-07-30T09:27:00.579+08:00,700,1.400000,0,1005,26,1004,2,5.000000,26.000000,4.000000,2.000000
39041,2026-07-30T09:27:00.579+08:00,701,1.402000,0,995,26,1001,2,-5.000000,26.000000,1.000000,2.000000
39042,2026-07-30T09:27:00.582+08:00,702,1.404000,0,989,26,997,2,-11.000000,26.000000,-3.000000,2.000000
39043,2026-07-30T09:27:00.582+08:00,703,1.406000,0,995,26,998,2,-5.000000,26.000000,-2.000000,2.000000
39044,2026-07-30T09:27:00.582+08:00,704,1.408000,0,1007,26,1001,2,7.000000,26.000000,1.000000,2.000000
39045,2026-07-30T09:27:00.592+08:00,705,1.410000,0,1010,26,1002,2,10.000000,26.000000,2.000000,2.000000
39046,2026-07-30T09:27:00.592+08:00,706,1.412000,0,1000,26,999,2,0.000000,26.000000,-1.000000,2.000000
39047,2026-07-30T09:27:00.592+08:00,707,1.414000,0,990,26,996,2,-10.000000,26.000000,-4.000000,2.000000
39048,2026-07-30T09:27:00.595+08:00,708,1.416000,0,992,26,998,2,-8.000000,26.000000,-2.000000,2.000000
39049,2026-07-30T09:27:00.595+08:00,709,1.418000,0,1003,26,1001,2,3.000000,26.000000,1.000000,2.000000
39050,2026-07-30T09:27:00.595+08:00,710,1.420000,0,1009,26,1002,2,9.000000,26.000000,2.000000,2.000000
39051,2026-07-30T09:27:00.598+08:00,711,1.422000,0,1003,26,1001,2,3.000000,26.000000,1.000000,2.000000
39052,2026-07-30T09:27:00.598+08:00,712,1.424000,0,994,26,999,2,-6.000000,26.000000,-1.000000,2.000000
39053,2026-07-30T09:27:00.607+08:00,713,1.426000,0,993,26,996,2,-7.000000,26.000000,-4.000000,2.000000
39054,2026-07-30T09:27:00.607+08:00,714,1.428000,0,1000,26,997,2,0.000000,26.000000,-3.000000,2.000000
39055,2026-07-30T09:27:00.607+08:00,715,1.430000,0,1005,26,1000,2,5.000000,26.000000,0.000000,2.000000
39056,2026-07-30T09:27:00.610+08:00,716,1.432000,0,1002,26,1003,2,2.000000,26.000000,3.000000,2.000000
39057,2026-07-30T09:27:00.610+08:00,717,1.434000,0,998,26,1001,2,-2.000000,26.000000,1.000000,2.000000
39058,2026-07-30T09:27:00.610+08:00,718,1.436000,0,998,26,998,2,-2.000000,26.000000,-2.000000,2.000000
39059,2026-07-30T09:27:00.612+08:00,719,1.438000,0,999,24,997,2,-1.000000,24.000000,-3.000000,2.000000
39060,2026-07-30T09:27:00.623+08:00,720,1.440000,0,998,24,999,2,-2.000000,24.000000,-1.000000,2.000000
39061,2026-07-30T09:27:00.623+08:00,721,1.442000,0,998,24,1000,2,-2.000000,24.000000,0.000000,2.000000
39062,2026-07-30T09:27:00.623+08:00,722,1.444000,0,1000,24,999,2,0.000000,24.000000,-1.000000,2.000000
39063,2026-07-30T09:27:00.625+08:00,723,1.446000,0,1003,24,999,2,3.000000,24.000000,-1.000000,2.000000
39064,2026-07-30T09:27:00.625+08:00,724,1.448000,0,1003,24,1000,2,3.000000,24.000000,0.000000,2.000000
39065,2026-07-30T09:27:00.625+08:00,725,1.450000,0,1000,24,1001,2,0.000000,24.000000,1.000000,2.000000
39066,2026-07-30T09:27:00.628+08:00,726,1.452000,0,994,24,1000,2,-6.000000,24.000000,0.000000,2.000000
39067,2026-07-30T09:27:00.628+08:00,727,1.454000,0,994,24,999,2,-6.000000,24.000000,-1.000000,2.000000
39068,2026-07-30T09:27:00.636+08:00,728,1.456000,0,1000,22,999,2,0.000000,22.000000,-1.000000,2.000000
39069,2026-07-30T09:27:00.638+08:00,729,1.458000,0,1007,22,999,2,7.000000,22.000000,-1.000000,2.000000
39070,2026-07-30T09:27:00.638+08:00,730,1.460000,0,1004,22,1000,2,4.000000,22.000000,0.000000,2.000000
39071,2026-07-30T09:27:00.638+08:00,731,1.462000,0,995,22,999,2,-5.000000,22.000000,-1.000000,2.000000
39072,2026-07-30T09:27:00.642+08:00,732,1.464000,0,992,22,1000,2,-8.000000,22.000000,0.000000,2.000000
39073,2026-07-30T09:27:00.642+08:00,733,1.466000,0,1000,22,1001,2,0.000000,22.000000,1.000000,2.000000
39074,2026-07-30T09:27:00.642+08:00,734,1.468000,0,1007,22,1001,2,7.000000,22.000000,1.000000,2.000000
39075,2026-07-30T09:27:00.653+08:00,735,1.470000,0,1001,20,999,2,1.000000,20.000000,-1.000000,2.000000
39076,2026-07-30T09:27:00.653+08:00,736,1.472000,0,991,20,997,2,-9.000000,20.000000,-3.000000,2.000000
39077,2026-07-30T09:27:00.653+08:00,737,1.474000,0,994,20,997,2,-6.000000,20.000000,-3.000000,2.000000
39078,2026-07-30T09:27:00.655+08:00,738,1.476000,0,1006,20,1000,2,6.000000,20.000000,0.000000,2.000000
39079,2026-07-30T09:27:00.655+08:00,739,1.478000,0,1011,18,1003,2,11.000000,18.000000,3.000000,2.000000
39080,2026-07-30T09:27:00.655+08:00,740,1.480000,0,998,18,1002,2,-2.000000,18.000000,2.000000,2.000000
39081,2026-07-30T09:27:00.658+08:00,741,1.482000,0,986,18,998,2,-14.000000,18.000000,-2.000000,2.000000
39082,2026-07-30T09:27:00.658+08:00,742,1.484000,0,992,18,996,2,-8.000000,18.000000,-4.000000,2.000000
39083,2026-07-30T09:27:00.667+08:00,743,1.486000,0,1008,18,998,2,8.000000,18.000000,-2.000000,2.000000
39084,2026-07-30T09:27:00.667+08:00,744,1.488000,0,1013,18,1000,2,13.000000,18.000000,0.000000,2.000000
39085,2026-07-30T09:27:00.667+08:00,745,1.490000,0,1000,16,1000,2,0.000000,16.000000,0.000000,2.000000
39086,2026-07-30T09:27:00.670+08:00,746,1.492000,0,989,16,1001,2,-11.000000,16.000000,1.000000,2.000000
39087,2026-07-30T09:27:00.670+08:00,747,1.494000,0,993,16,1001,2,-7.000000,16.000000,1.000000,2.000000
39088,2026-07-30T09:27:00.670+08:00,748,1.496000,0,1004,16,1000,2,4.000000,16.000000,0.000000,2.000000
39089,2026-07-30T09:27:00.672+08:00,749,1.498000,0,1005,16,998,2,5.000000,16.000000,-2.000000,2.000000
39090,2026-07-30T09:27:00.683+08:00,750,1.500000,0,998,16,996,2,-2.000000,16.000000,-4.000000,2.000000
39091,2026-07-30T09:27:00.683+08:00,751,1.502000,0,996,16,998,2,-4.000000,16.000000,-2.000000,2.000000
39092,2026-07-30T09:27:00.683+08:00,752,1.504000,0,1002,16,1001,2,2.000000,16.000000,1.000000,2.000000
39093,2026-07-30T09:27:00.685+08:00,753,1.506000,0,1004,16,1002,2,4.000000,16.000000,2.000000,2.000000
39094,2026-07-30T09:27:00.685+08:00,754,1.508000,0,999,16,1001,2,-1.000000,16.000000,1.000000,2.000000
39095,2026-07-30T09:27:00.685+08:00,755,1.510000,0,994,16,999,2,-6.000000,16.000000,-1.000000,2.000000
39096,2026-07-30T09:27:00.687+08:00,756,1.512000,0,996,16,997,2,-4.000000,16.000000,-3.000000,2.000000
39097,2026-07-30T09:27:00.687+08:00,757,1.514000,0,1000,14,998,2,0.000000,14.000000,-2.000000,2.000000
39098,2026-07-30T09:27:00.697+08:00,758,1.516000,0,1001,14,1000,2,1.000000,14.000000,0.000000,2.000000
39099,2026-07-30T09:27:00.697+08:00,759,1.518000,0,1002,14,1001,2,2.000000,14.000000,1.000000,2.000000
39100,2026-07-30T09:27:00.697+08:00,760,1.520000,0,1005,14,999,2,5.000000,14.000000,-1.000000,2.000000
39101,2026-07-30T09:27:00.699+08:00,761,1.522000,0,1004,14,998,2,4.000000,14.000000,-2.000000,2.000000
39102,2026-07-30T09:27:00.699+08:00,762,1.524000,0,995,14,1001,2,-5.000000,14.000000,1.000000,2.000000
39103,2026-07-30T09:27:00.699+08:00,763,1.526000,0,984,14,1003,2,-16.000000,14.000000,3.000000,2.000000
39104,2026-07-30T09:27:00.701+08:00,764,1.528000,0,987,14,1000,2,-13.000000,14.000000,0.000000,2.000000
39105,2026-07-30T09:27:00.712+08:00,765,1.530000,0,1008,14,995,2,8.000000,14.000000,-5.000000,2.000000
39106,2026-07-30T09:27:00.712+08:00,766,1.532000,0,1026,14,995,2,26.000000,14.000000,-5.000000,2.000000
39107,2026-07-30T09:27:00.712+08:00,767,1.534000,0,1017,14,1000,2,17.000000,14.000000,0.000000,2.000000
39108,2026-07-30T09:27:00.715+08:00,768,1.536000,0,986,14,1005,2,-14.000000,14.000000,5.000000,2.000000
39109,2026-07-30T09:27:00.715+08:00,769,1.538000,0,967,14,1003,2,-33.000000,14.000000,3.000000,2.000000
39110,2026-07-30T09:27:00.715+08:00,770,1.540000,0,983,14,997,2,-17.000000,14.000000,-3.000000,2.000000
39111,2026-07-30T09:27:00.718+08:00,771,1.542000,0,1016,14,995,2,16.000000,14.000000,-5.000000,2.000000
39112,2026-07-30T09:27:00.718+08:00,772,1.544000,0,1029,14,998,2,29.000000,14.000000,-2.000000,2.000000
39113,2026-07-30T09:27:00.727+08:00,773,1.546000,0,1010,14,1002,2,10.000000,14.000000,2.000000,2.000000
39114,2026-07-30T09:27:00.727+08:00,774,1.548000,0,985,14,1001,2,-15.000000,14.000000,1.000000,2.000000
39115,2026-07-30T09:27:00.727+08:00,775,1.550000,0,980,12,998,2,-20.000000,12.000000,-2.000000,2.000000
39116,2026-07-30T09:27:00.730+08:00,776,1.552000,0,996,12,998,2,-4.000000,12.000000,-2.000000,2.000000
39117,2026-07-30T09:27:00.730+08:00,777,1.554000,0,1007,12,1002,2,7.000000,12.000000,2.000000,2.000000
39118,2026-07-30T09:27:00.730+08:00,778,1.556000,0,1003,12,1003,2,3.000000,12.000000,3.000000,2.000000
39119,2026-07-30T09:27:00.731+08:00,779,1.558000,0,998,12,999,2,-2.000000,12.000000,-1.000000,2.000000
39120,2026-07-30T09:27:00.742+08:00,780,1.560000,0,1005,12,995,2,5.000000,12.000000,-5.000000,2.000000
39121,2026-07-30T09:27:00.742+08:00,781,1.562000,0,1011,12,996,2,11.000000,12.000000,-4.000000,2.000000
39122,2026-07-30T09:27:00.742+08:00,782,1.564000,0,999,12,1001,2,-1.000000,12.000000,1.000000,2.000000
39123,2026-07-30T09:27:00.745+08:00,783,1.566000,0,981,12,1003,2,-19.000000,12.000000,3.000000,2.000000
39124,2026-07-30T09:27:00.745+08:00,784,1.568000,0,982,12,1002,2,-18.000000,12.000000,2.000000,2.000000
39125,2026-07-30T09:27:00.745+08:00,785,1.570000,0,1006,12,999,2,6.000000,12.000000,-1.000000,2.000000
39126,2026-07-30T09:27:00.747+08:00,786,1.572000,0,1025,12,998,2,25.000000,12.000000,-2.000000,2.000000
39127,2026-07-30T09:27:00.747+08:00,787,1.574000,0,1012,12,998,2,12.000000,12.000000,-2.000000,2.000000
39128,2026-07-30T09:27:00.757+08:00,788,1.576000,0,984,12,997,2,-16.000000,12.000000,-3.000000,2.000000
39129,2026-07-30T09:27:00.757+08:00,789,1.578000,0,978,12,998,2,-22.000000,12.000000,-2.000000,2.000000
39130,2026-07-30T09:27:00.757+08:00,790,1.580000,0,1001,12,1002,2,1.000000,12.000000,2.000000,2.000000
39131,2026-07-30T09:27:00.760+08:00,791,1.582000,0,1019,12,1005,2,19.000000,12.000000,5.000000,2.000000
39132,2026-07-30T09:27:00.760+08:00,792,1.584000,0,1007,12,1002,2,7.000000,12.000000,2.000000,2.000000
39133,2026-07-30T09:27:00.760+08:00,793,1.586000,0,984,12,996,2,-16.000000,12.000000,-4.000000,2.000000
39134,2026-07-30T09:27:00.761+08:00,794,1.588000,0,987,12,994,4,-13.000000,12.000000,-6.000000,4.000000
39135,2026-07-30T09:27:00.773+08:00,795,1.590000,0,1011,14,998,4,11.000000,14.000000,-2.000000,4.000000
39136,2026-07-30T09:27:00.773+08:00,796,1.592000,0,1017,14,1002,2,17.000000,14.000000,2.000000,2.000000
39137,2026-07-30T09:27:00.773+08:00,797,1.594000,0,996,14,1003,4,-4.000000,14.000000,3.000000,4.000000
39138,2026-07-30T09:27:00.776+08:00,798,1.596000,0,979,14,1000,2,-21.000000,14.000000,0.000000,2.000000
39139,2026-07-30T09:27:00.776+08:00,799,1.598000,0,992,14,999,2,-8.000000,14.000000,-1.000000,2.000000
39140,2026-07-30T09:27:00.776+08:00,800,1.600000,0,1017,14,1000,2,17.000000,14.000000,0.000000,2.000000
39141,2026-07-30T09:27:00.778+08:00,801,1.602000,0,1020,14,1000,2,20.000000,14.000000,0.000000,2.000000
39142,2026-07-30T09:27:00.778+08:00,802,1.604000,0,996,14,997,2,-4.000000,14.000000,-3.000000,2.000000
39143,2026-07-30T09:27:00.788+08:00,803,1.606000,0,974,14,997,2,-26.000000,14.000000,-3.000000,2.000000
39144,2026-07-30T09:27:00.788+08:00,804,1.608000,0,982,14,1000,2,-18.000000,14.000000,0.000000,2.000000
39145,2026-07-30T09:27:00.788+08:00,805,1.610000,0,1014,14,1004,2,14.000000,14.000000,4.000000,2.000000
39146,2026-07-30T09:27:00.790+08:00,806,1.612000,0,1030,16,1002,2,30.000000,16.000000,2.000000,2.000000
39147,2026-07-30T09:27:00.790+08:00,807,1.614000,0,1010,16,998,2,10.000000,16.000000,-2.000000,2.000000
39148,2026-07-30T09:27:00.790+08:00,808,1.616000,0,980,16,997,2,-20.000000,16.000000,-3.000000,2.000000
39149,2026-07-30T09:27:00.792+08:00,809,1.618000,0,974,16,999,2,-26.000000,16.000000,-1.000000,2.000000
39150,2026-07-30T09:27:00.803+08:00,810,1.620000,0,994,16,1001,2,-6.000000,16.000000,1.000000,2.000000
39151,2026-07-30T09:27:00.803+08:00,811,1.622000,0,1014,16,999,2,14.000000,16.000000,-1.000000,2.000000
39152,2026-07-30T09:27:00.803+08:00,812,1.624000,0,1016,16,998,2,16.000000,16.000000,-2.000000,2.000000
39153,2026-07-30T09:27:00.805+08:00,813,1.626000,0,1008,16,1001,2,8.000000,16.000000,1.000000,2.000000
39154,2026-07-30T09:27:00.805+08:00,814,1.628000,0,999,16,1004,2,-1.000000,16.000000,4.000000,2.000000
39155,2026-07-30T09:27:00.805+08:00,815,1.630000,0,987,16,1002,2,-13.000000,16.000000,2.000000,2.000000
39156,2026-07-30T09:27:00.808+08:00,816,1.632000,0,979,16,996,2,-21.000000,16.000000,-4.000000,2.000000
39157,2026-07-30T09:27:00.808+08:00,817,1.634000,0,989,16,993,2,-11.000000,16.000000,-7.000000,2.000000
39158,2026-07-30T09:27:00.817+08:00,818,1.636000,0,1017,16,998,2,17.000000,16.000000,-2.000000,2.000000
39159,2026-07-30T09:27:00.817+08:00,819,1.638000,0,1031,16,1006,2,31.000000,16.000000,6.000000,2.000000
39160,2026-07-30T09:27:00.817+08:00,820,1.640000,0,1010,16,1005,2,10.000000,16.000000,5.000000,2.000000
39161,2026-07-30T09:27:00.820+08:00,821,1.642000,0,976,16,998,2,-24.000000,16.000000,-2.000000,2.000000
39162,2026-07-30T09:27:00.820+08:00,822,1.644000,0,969,18,994,2,-31.000000,18.000000,-6.000000,2.000000
39163,2026-07-30T09:27:00.820+08:00,823,1.646000,0,995,18,998,2,-5.000000,18.000000,-2.000000,2.000000
39164,2026-07-30T09:27:00.822+08:00,824,1.648000,0,1022,18,1003,2,22.000000,18.000000,3.000000,2.000000
39165,2026-07-30T09:27:00.832+08:00,825,1.650000,0,1020,18,1002,2,20.000000,18.000000,2.000000,2.000000
39166,2026-07-30T09:27:00.832+08:00,826,1.652000,0,998,18,997,2,-2.000000,18.000000,-3.000000,2.000000
39167,2026-07-30T09:27:00.832+08:00,827,1.654000,0,985,18,996,2,-15.000000,18.000000,-4.000000,2.000000
39168,2026-07-30T09:27:00.835+08:00,828,1.656000,0,991,18,1000,2,-9.000000,18.000000,0.000000,2.000000
39169,2026-07-30T09:27:00.835+08:00,829,1.658000,0,1003,18,1004,2,3.000000,18.000000,4.000000,2.000000
39170,2026-07-30T09:27:00.835+08:00,830,1.660000,0,1003,18,1002,2,3.000000,18.000000,2.000000,2.000000
39171,2026-07-30T09:27:00.837+08:00,831,1.662000,0,998,18,997,2,-2.000000,18.000000,-3.000000,2.000000
39172,2026-07-30T09:27:00.837+08:00,832,1.664000,0,999,18,994,2,-1.000000,18.000000,-6.000000,2.000000
39173,2026-07-30T09:27:00.847+08:00,833,1.666000,0,1005,18,997,2,5.000000,18.000000,-3.000000,2.000000
39174,2026-07-30T09:27:00.847+08:00,834,1.668000,0,1004,18,1002,2,4.000000,18.000000,2.000000,2.000000
39175,2026-07-30T09:27:00.847+08:00,835,1.670000,0,995,18,1005,2,-5.000000,18.000000,5.000000,2.000000
39176,2026-07-30T09:27:00.849+08:00,836,1.672000,0,991,18,1003,2,-9.000000,18.000000,3.000000,2.000000
39177,2026-07-30T09:27:00.849+08:00,837,1.674000,0,999,18,997,2,-1.000000,18.000000,-3.000000,2.000000
39178,2026-07-30T09:27:00.849+08:00,838,1.676000,0,1009,18,994,2,9.000000,18.000000,-6.000000,2.000000
39179,2026-07-30T09:27:00.851+08:00,839,1.678000,0,1005,18,996,2,5.000000,18.000000,-4.000000,2.000000
39180,2026-07-30T09:27:00.862+08:00,840,1.680000,0,992,18,1001,2,-8.000000,18.000000,1.000000,2.000000
39181,2026-07-30T09:27:00.862+08:00,841,1.682000,0,988,18,1003,2,-12.000000,18.000000,3.000000,2.000000
39182,2026-07-30T09:27:00.862+08:00,842,1.684000,0,999,18,1002,2,-1.000000,18.000000,2.000000,2.000000
39183,2026-07-30T09:27:00.865+08:00,843,1.686000,0,1012,18,999,2,12.000000,18.000000,-1.000000,2.000000
39184,2026-07-30T09:27:00.865+08:00,844,1.688000,0,1011,18,997,2,11.000000,18.000000,-3.000000,2.000000
39185,2026-07-30T09:27:00.865+08:00,845,1.690000,0,997,18,998,2,-3.000000,18.000000,-2.000000,2.000000
39186,2026-07-30T09:27:00.867+08:00,846,1.692000,0,986,18,1000,2,-14.000000,18.000000,0.000000,2.000000
39187,2026-07-30T09:27:00.867+08:00,847,1.694000,0,987,18,999,2,-13.000000,18.000000,-1.000000,2.000000
39188,2026-07-30T09:27:00.875+08:00,848,1.696000,0,1000,18,999,2,0.000000,18.000000,-1.000000,2.000000
39189,2026-07-30T09:27:00.878+08:00,849,1.698000,0,1014,18,1000,2,14.000000,18.000000,0.000000,2.000000
39190,2026-07-30T09:27:00.878+08:00,850,1.700000,0,1016,18,1002,2,16.000000,18.000000,2.000000,2.000000
39191,2026-07-30T09:27:00.878+08:00,851,1.702000,0,1001,18,1001,2,1.000000,18.000000,1.000000,2.000000
39192,2026-07-30T09:27:00.882+08:00,852,1.704000,0,983,18,998,2,-17.000000,18.000000,-2.000000,2.000000
39193,2026-07-30T09:27:00.882+08:00,853,1.706000,0,980,18,997,2,-20.000000,18.000000,-3.000000,2.000000
39194,2026-07-30T09:27:00.882+08:00,854,1.708000,0,998,18,999,2,-2.000000,18.000000,-1.000000,2.000000
39195,2026-07-30T09:27:00.893+08:00,855,1.710000,0,1018,20,1001,2,18.000000,20.000000,1.000000,2.000000
39196,2026-07-30T09:27:00.893+08:00,856,1.712000,0,1018,20,1000,2,18.000000,20.000000,0.000000,2.000000
39197,2026-07-30T09:27:00.893+08:00,857,1.714000,0,1000,20,999,2,0.000000,20.000000,-1.000000,2.000000
39198,2026-07-30T09:27:00.896+08:00,858,1.716000,0,984,20,1000,2,-16.000000,20.000000,0.000000,2.000000
39199,2026-07-30T09:27:00.896+08:00,859,1.718000,0,984,20,1001,2,-16.000000,20.000000,1.000000,2.000000
39200,2026-07-30T09:27:00.896+08:00,860,1.720000,0,998,20,1001,2,-2.000000,20.000000,1.000000,2.000000
39201,2026-07-30T09:27:00.898+08:00,861,1.722000,0,1010,20,998,2,10.000000,20.000000,-2.000000,2.000000
39202,2026-07-30T09:27:00.898+08:00,862,1.724000,0,1010,20,995,2,10.000000,20.000000,-5.000000,2.000000
39203,2026-07-30T09:27:00.906+08:00,863,1.726000,0,1001,20,997,2,1.000000,20.000000,-3.000000,2.000000
39204,2026-07-30T09:27:00.908+08:00,864,1.728000,0,994,20,1004,2,-6.000000,20.000000,4.000000,2.000000
39205,2026-07-30T09:27:00.908+08:00,865,1.730000,0,994,20,1006,2,-6.000000,20.000000,6.000000,2.000000
39206,2026-07-30T09:27:00.908+08:00,866,1.732000,0,999,20,1001,2,-1.000000,20.000000,1.000000,2.000000
39207,2026-07-30T09:27:00.912+08:00,867,1.734000,0,1002,20,994,2,2.000000,20.000000,-6.000000,2.000000
39208,2026-07-30T09:27:00.912+08:00,868,1.736000,0,1002,20,994,2,2.000000,20.000000,-6.000000,2.000000
39209,2026-07-30T09:27:00.912+08:00,869,1.738000,0,997,20,1001,2,-3.000000,20.000000,1.000000,2.000000
39210,2026-07-30T09:27:00.923+08:00,870,1.740000,0,995,20,1005,2,-5.000000,20.000000,5.000000,2.000000
39211,2026-07-30T09:27:00.923+08:00,871,1.742000,0,999,20,1002,2,-1.000000,20.000000,2.000000,2.000000
39212,2026-07-30T09:27:00.923+08:00,872,1.744000,0,1008,20,997,2,8.000000,20.000000,-3.000000,2.000000
39213,2026-07-30T09:27:00.925+08:00,873,1.746000,0,1009,20,997,2,9.000000,20.000000,-3.000000,2.000000
39214,2026-07-30T09:27:00.925+08:00,874,1.748000,0,997,20,1001,2,-3.000000,20.000000,1.000000,2.000000
39215,2026-07-30T09:27:00.925+08:00,875,1.750000,0,983,20,1003,2,-17.000000,20.000000,3.000000,2.000000
39216,2026-07-30T09:27:00.928+08:00,876,1.752000,0,986,20,999,2,-14.000000,20.000000,-1.000000,2.000000
39217,2026-07-30T09:27:00.928+08:00,877,1.754000,0,1007,20,996,2,7.000000,20.000000,-4.000000,2.000000
39218,2026-07-30T09:27:00.936+08:00,878,1.756000,0,1022,20,997,2,22.000000,20.000000,-3.000000,2.000000
39219,2026-07-30T09:27:00.939+08:00,879,1.758000,0,1010,20,1002,2,10.000000,20.000000,2.000000,2.000000
39220,2026-07-30T09:27:00.939+08:00,880,1.760000,0,985,20,1004,2,-15.000000,20.000000,4.000000,2.000000
39221,2026-07-30T09:27:00.939+08:00,881,1.762000,0,978,20,1000,2,-22.000000,20.000000,0.000000,2.000000
39222,2026-07-30T09:27:00.942+08:00,882,1.764000,0,998,20,996,2,-2.000000,20.000000,-4.000000,2.000000
39223,2026-07-30T09:27:00.942+08:00,883,1.766000,0,1019,20,996,4,19.000000,20.000000,-4.000000,4.000000
39224,2026-07-30T09:27:00.942+08:00,884,1.768000,0,1013,20,1000,2,13.000000,20.000000,0.000000,2.000000
39225,2026-07-30T09:27:00.953+08:00,885,1.770000,0,988,20,1003,4,-12.000000,20.000000,3.000000,4.000000
39226,2026-07-30T09:27:00.953+08:00,886,1.772000,0,981,22,1001,4,-19.000000,22.000000,1.000000,4.000000
39227,2026-07-30T09:27:00.953+08:00,887,1.774000,0,1001,22,998,4,1.000000,22.000000,-2.000000,4.000000
39228,2026-07-30T09:27:00.955+08:00,888,1.776000,0,1017,22,998,4,17.000000,22.000000,-2.000000,4.000000
39229,2026-07-30T09:27:00.955+08:00,889,1.778000,0,1007,22,1000,4,7.000000,22.000000,0.000000,4.000000
39230,2026-07-30T09:27:00.955+08:00,890,1.780000,0,987,22,1001,4,-13.000000,22.000000,1.000000,4.000000
39231,2026-07-30T09:27:00.958+08:00,891,1.782000,0,989,22,999,2,-11.000000,22.000000,-1.000000,2.000000
39232,2026-07-30T09:27:00.958+08:00,892,1.784000,0,1008,22,998,4,8.000000,22.000000,-2.000000,4.000000
39233,2026-07-30T09:27:00.966+08:00,893,1.786000,0,1010,22,999,2,10.000000,22.000000,-1.000000,2.000000
39234,2026-07-30T09:27:00.968+08:00,894,1.788000,0,990,22,1001,2,-10.000000,22.000000,1.000000,2.000000
39235,2026-07-30T09:27:00.968+08:00,895,1.790000,0,982,22,1001,2,-18.000000,22.000000,1.000000,2.000000
39236,2026-07-30T09:27:00.968+08:00,896,1.792000,0,1006,20,999,2,6.000000,20.000000,-1.000000,2.000000
39237,2026-07-30T09:27:00.972+08:00,897,1.794000,0,1029,20,999,2,29.000000,20.000000,-1.000000,2.000000
39238,2026-07-30T09:27:00.972+08:00,898,1.796000,0,1012,20,1000,2,12.000000,20.000000,0.000000,2.000000
39239,2026-07-30T09:27:00.972+08:00,899,1.798000,0,973,20,1001,2,-27.000000,20.000000,1.000000,2.000000
39240,2026-07-30T09:27:00.983+08:00,900,1.800000,0,965,22,999,2,-35.000000,22.000000,-1.000000,2.000000
39241,2026-07-30T09:27:00.983+08:00,901,1.802000,0,1000,20,997,2,0.000000,20.000000,-3.000000,2.000000
39242,2026-07-30T09:27:00.983+08:00,902,1.804000,0,1034,22,998,2,34.000000,22.000000,-2.000000,2.000000
39243,2026-07-30T09:27:00.986+08:00,903,1.806000,0,1027,22,1002,2,27.000000,22.000000,2.000000,2.000000
39244,2026-07-30T09:27:00.986+08:00,904,1.808000,0,991,22,1003,2,-9.000000,22.000000,3.000000,2.000000
39245,2026-07-30T09:27:00.986+08:00,905,1.810000,0,969,22,1000,2,-31.000000,22.000000,0.000000,2.000000
39246,2026-07-30T09:27:00.988+08:00,906,1.812000,0,982,22,996,2,-18.000000,22.000000,-4.000000,2.000000
39247,2026-07-30T09:27:00.988+08:00,907,1.814000,0,1007,22,996,2,7.000000,22.000000,-4.000000,2.000000
39248,2026-07-30T09:27:00.997+08:00,908,1.816000,0,1017,22,1000,2,17.000000,22.000000,0.000000,2.000000
39249,2026-07-30T09:27:00.997+08:00,909,1.818000,0,1012,22,1003,2,12.000000,22.000000,3.000000,2.000000
39250,2026-07-30T09:27:00.997+08:00,910,1.820000,0,1004,22,1001,2,4.000000,22.000000,1.000000,2.000000
39251,2026-07-30T09:27:01.000+08:00,911,1.822000,0,994,22,998,2,-6.000000,22.000000,-2.000000,2.000000
39252,2026-07-30T09:27:01.000+08:00,912,1.824000,0,982,22,997,2,-18.000000,22.000000,-3.000000,2.000000
39253,2026-07-30T09:27:01.000+08:00,913,1.826000,0,982,22,1000,2,-18.000000,22.000000,0.000000,2.000000
39254,2026-07-30T09:27:01.002+08:00,914,1.828000,0,1003,22,1002,2,3.000000,22.000000,2.000000,2.000000
39255,2026-07-30T09:27:01.012+08:00,915,1.830000,0,1027,22,1000,2,27.000000,22.000000,0.000000,2.000000
39256,2026-07-30T09:27:01.012+08:00,916,1.832000,0,1021,22,997,2,21.000000,22.000000,-3.000000,2.000000
39257,2026-07-30T09:27:01.012+08:00,917,1.834000,0,989,22,996,2,-11.000000,22.000000,-4.000000,2.000000
39258,2026-07-30T09:27:01.015+08:00,918,1.836000,0,968,22,1000,2,-32.000000,22.000000,0.000000,2.000000
39259,2026-07-30T09:27:01.015+08:00,919,1.838000,0,983,22,1003,2,-17.000000,22.000000,3.000000,2.000000
39260,2026-07-30T09:27:01.015+08:00,920,1.840000,0,1015,22,1002,2,15.000000,22.000000,2.000000,2.000000
39261,2026-07-30T09:27:01.017+08:00,921,1.842000,0,1027,22,999,2,27.000000,22.000000,-1.000000,2.000000
39262,2026-07-30T09:27:01.017+08:00,922,1.844000,0,1007,22,997,2,7.000000,22.000000,-3.000000,2.000000
39263,2026-07-30T09:27:01.027+08:00,923,1.846000,0,983,22,997,2,-17.000000,22.000000,-3.000000,2.000000
39264,2026-07-30T09:27:01.027+08:00,924,1.848000,0,982,22,1000,2,-18.000000,22.000000,0.000000,2.000000
39265,2026-07-30T09:27:01.027+08:00,925,1.850000,0,1000,22,1002,2,0.000000,22.000000,2.000000,2.000000
39266,2026-07-30T09:27:01.030+08:00,926,1.852000,0,1011,22,1001,2,11.000000,22.000000,1.000000,2.000000
39267,2026-07-30T09:27:01.030+08:00,927,1.854000,0,1004,22,999,2,4.000000,22.000000,-1.000000,2.000000
39268,2026-07-30T09:27:01.030+08:00,928,1.856000,0,995,22,998,2,-5.000000,22.000000,-2.000000,2.000000
39269,2026-07-30T09:27:01.032+08:00,929,1.858000,0,995,22,999,2,-5.000000,22.000000,-1.000000,2.000000
39270,2026-07-30T09:27:01.043+08:00,930,1.860000,0,999,22,1001,2,-1.000000,22.000000,1.000000,2.000000
39271,2026-07-30T09:27:01.043+08:00,931,1.862000,0,1004,22,1001,2,4.000000,22.000000,1.000000,2.000000
39272,2026-07-30T09:27:01.043+08:00,932,1.864000,0,1008,22,1000,2,8.000000,22.000000,0.000000,2.000000
39273,2026-07-30T09:27:01.046+08:00,933,1.866000,0,1005,22,998,2,5.000000,22.000000,-2.000000,2.000000
39274,2026-07-30T09:27:01.046+08:00,934,1.868000,0,992,22,998,2,-8.000000,22.000000,-2.000000,2.000000
39275,2026-07-30T09:27:01.046+08:00,935,1.870000,0,983,22,999,2,-17.000000,22.000000,-1.000000,2.000000
39276,2026-07-30T09:27:01.048+08:00,936,1.872000,0,992,22,1001,2,-8.000000,22.000000,1.000000,2.000000
39277,2026-07-30T09:27:01.048+08:00,937,1.874000,0,1010,20,1002,2,10.000000,20.000000,2.000000,2.000000
39278,2026-07-30T09:27:01.056+08:00,938,1.876000,0,1017,22,1001,2,17.000000,22.000000,1.000000,2.000000
39279,2026-07-30T09:27:01.059+08:00,939,1.878000,0,1006,20,998,2,6.000000,20.000000,-2.000000,2.000000
39280,2026-07-30T09:27:01.059+08:00,940,1.880000,0,990,20,995,2,-10.000000,20.000000,-5.000000,2.000000
39281,2026-07-30T09:27:01.059+08:00,941,1.882000,0,987,20,997,2,-13.000000,20.000000,-3.000000,2.000000
39282,2026-07-30T09:27:01.062+08:00,942,1.884000,0,995,20,1002,2,-5.000000,20.000000,2.000000,2.000000
39283,2026-07-30T09:27:01.062+08:00,943,1.886000,0,1002,20,1005,2,2.000000,20.000000,5.000000,2.000000
39284,2026-07-30T09:27:01.062+08:00,944,1.888000,0,1003,20,1001,2,3.000000,20.000000,1.000000,2.000000
39285,2026-07-30T09:27:01.073+08:00,945,1.890000,0,1004,20,996,2,4.000000,20.000000,-4.000000,2.000000
39286,2026-07-30T09:27:01.073+08:00,946,1.892000,0,1007,20,995,2,7.000000,20.000000,-5.000000,2.000000
39287,2026-07-30T09:27:01.073+08:00,947,1.894000,0,1005,20,999,2,5.000000,20.000000,-1.000000,2.000000
39288,2026-07-30T09:27:01.075+08:00,948,1.896000,0,993,20,1004,2,-7.000000,20.000000,4.000000,2.000000
39289,2026-07-30T09:27:01.075+08:00,949,1.898000,0,981,20,1003,2,-19.000000,20.000000,3.000000,2.000000
39290,2026-07-30T09:27:01.075+08:00,950,1.900000,0,987,20,998,2,-13.000000,20.000000,-2.000000,2.000000
39291,2026-07-30T09:27:01.078+08:00,951,1.902000,0,1013,20,996,2,13.000000,20.000000,-4.000000,2.000000
39292,2026-07-30T09:27:01.078+08:00,952,1.904000,0,1031,20,998,2,31.000000,20.000000,-2.000000,2.000000
39293,2026-07-30T09:27:01.087+08:00,953,1.906000,0,1013,20,1001,2,13.000000,20.000000,1.000000,2.000000
39294,2026-07-30T09:27:01.087+08:00,954,1.908000,0,973,20,1001,2,-27.000000,20.000000,1.000000,2.000000
39295,2026-07-30T09:27:01.087+08:00,955,1.910000,0,959,20,999,2,-41.000000,20.000000,-1.000000,2.000000
39296,2026-07-30T09:27:01.089+08:00,956,1.912000,0,995,20,998,2,-5.000000,20.000000,-2.000000,2.000000
39297,2026-07-30T09:27:01.089+08:00,957,1.914000,0,1041,20,999,2,41.000000,20.000000,-1.000000,2.000000
39298,2026-07-30T09:27:01.089+08:00,958,1.916000,0,1039,22,1000,2,39.000000,22.000000,0.000000,2.000000
39299,2026-07-30T09:27:01.091+08:00,959,1.918000,0,992,22,999,2,-8.000000,22.000000,-1.000000,2.000000
39300,2026-07-30T09:27:01.102+08:00,960,1.920000,0,956,22,999,2,-44.000000,22.000000,-1.000000,2.000000
39301,2026-07-30T09:27:01.102+08:00,961,1.922000,0,970,22,1000,2,-30.000000,22.000000,0.000000,2.000000
39302,2026-07-30T09:27:01.102+08:00,962,1.924000,0,1010,22,1001,2,10.000000,22.000000,1.000000,2.000000
39303,2026-07-30T09:27:01.105+08:00,963,1.926000,0,1031,24,1001,2,31.000000,24.000000,1.000000,2.000000
39304,2026-07-30T09:27:01.105+08:00,964,1.928000,0,1022,24,999,2,22.000000,24.000000,-1.000000,2.000000
39305,2026-07-30T09:27:01.105+08:00,965,1.930000,0,1000,24,997,2,0.000000,24.000000,-3.000000,2.000000
39306,2026-07-30T09:27:01.107+08:00,966,1.932000,0,981,24,998,2,-19.000000,24.000000,-2.000000,2.000000
39307,2026-07-30T09:27:01.107+08:00,967,1.934000,0,977,24,1001,2,-23.000000,24.000000,1.000000,2.000000
39308,2026-07-30T09:27:01.117+08:00,968,1.936000,0,989,24,1003,2,-11.000000,24.000000,3.000000,2.000000
39309,2026-07-30T09:27:01.117+08:00,969,1.938000,0,1011,24,1002,2,11.000000,24.000000,2.000000,2.000000
39310,2026-07-30T09:27:01.117+08:00,970,1.940000,0,1022,24,997,2,22.000000,24.000000,-3.000000,2.000000
39311,2026-07-30T09:27:01.120+08:00,971,1.942000,0,1013,24,995,2,13.000000,24.000000,-5.000000,2.000000
39312,2026-07-30T09:27:01.120+08:00,972,1.944000,0,992,24,998,2,-8.000000,24.000000,-2.000000,2.000000
39313,2026-07-30T09:27:01.120+08:00,973,1.946000,0,982,24,1003,2,-18.000000,24.000000,3.000000,2.000000
39314,2026-07-30T09:27:01.122+08:00,974,1.948000,0,989,24,1004,2,-11.000000,24.000000,4.000000,2.000000
39315,2026-07-30T09:27:01.132+08:00,975,1.950000,0,1002,24,1000,2,2.000000,24.000000,0.000000,2.000000
39316,2026-07-30T09:27:01.132+08:00,976,1.952000,0,1008,24,997,2,8.000000,24.000000,-3.000000,2.000000
39317,2026-07-30T09:27:01.132+08:00,977,1.954000,0,1005,24,997,2,5.000000,24.000000,-3.000000,2.000000
39318,2026-07-30T09:27:01.135+08:00,978,1.956000,0,1002,24,999,2,2.000000,24.000000,-1.000000,2.000000
39319,2026-07-30T09:27:01.135+08:00,979,1.958000,0,1002,24,1001,2,2.000000,24.000000,1.000000,2.000000
39320,2026-07-30T09:27:01.135+08:00,980,1.960000,0,998,24,1001,2,-2.000000,24.000000,1.000000,2.000000
39321,2026-07-30T09:27:01.138+08:00,981,1.962000,0,991,24,1001,2,-9.000000,24.000000,1.000000,2.000000
39322,2026-07-30T09:27:01.138+08:00,982,1.964000,0,992,24,1000,2,-8.000000,24.000000,0.000000,2.000000
39323,2026-07-30T09:27:01.147+08:00,983,1.966000,0,1002,24,999,2,2.000000,24.000000,-1.000000,2.000000
39324,2026-07-30T09:27:01.147+08:00,984,1.968000,0,1010,24,998,2,10.000000,24.000000,-2.000000,2.000000
39325,2026-07-30T09:27:01.147+08:00,985,1.970000,0,1005,24,998,2,5.000000,24.000000,-2.000000,2.000000
39326,2026-07-30T09:27:01.149+08:00,986,1.972000,0,995,24,998,2,-5.000000,24.000000,-2.000000,2.000000
39327,2026-07-30T09:27:01.149+08:00,987,1.974000,0,994,22,1001,2,-6.000000,22.000000,1.000000,2.000000
39328,2026-07-30T09:27:01.149+08:00,988,1.976000,0,1001,22,1003,2,1.000000,22.000000,3.000000,2.000000
39329,2026-07-30T09:27:01.151+08:00,989,1.978000,0,1002,22,1001,2,2.000000,22.000000,1.000000,2.000000
39330,2026-07-30T09:27:01.162+08:00,990,1.980000,0,994,22,998,2,-6.000000,22.000000,-2.000000,2.000000
39331,2026-07-30T09:27:01.162+08:00,991,1.982000,0,990,22,996,2,-10.000000,22.000000,-4.000000,2.000000
39332,2026-07-30T09:27:01.162+08:00,992,1.984000,0,1004,22,999,2,4.000000,22.000000,-1.000000,2.000000
39333,2026-07-30T09:27:01.165+08:00,993,1.986000,0,1019,24,1001,2,19.000000,24.000000,1.000000,2.000000
39334,2026-07-30T09:27:01.165+08:00,994,1.988000,0,1010,24,1001,2,10.000000,24.000000,1.000000,2.000000
39335,2026-07-30T09:27:01.165+08:00,995,1.990000,0,983,24,999,2,-17.000000,24.000000,-1.000000,2.000000
39336,2026-07-30T09:27:01.168+08:00,996,1.992000,0,973,24,999,2,-27.000000,24.000000,-1.000000,2.000000
39337,2026-07-30T09:27:01.168+08:00,997,1.994000,0,997,24,999,2,-3.000000,24.000000,-1.000000,2.000000
39338,2026-07-30T09:27:01.176+08:00,998,1.996000,0,1025,24,999,2,25.000000,24.000000,-1.000000,2.000000
39339,2026-07-30T09:27:01.178+08:00,999,1.998000,0,1019,24,999,2,19.000000,24.000000,-1.000000,2.000000
39340,2026-07-30T09:27:01.178+08:00,1000,2.000000,0,990,24,1000,2,-10.000000,24.000000,0.000000,2.000000
39341,2026-07-30T09:27:01.178+08:00,1001,2.002000,0,978,24,1000,2,-22.000000,24.000000,0.000000,2.000000
39342,2026-07-30T09:27:01.182+08:00,1002,2.004000,0,996,24,999,2,-4.000000,24.000000,-1.000000,2.000000
39343,2026-07-30T09:27:01.182+08:00,1003,2.006000,0,1014,24,999,2,14.000000,24.000000,-1.000000,2.000000
39344,2026-07-30T09:27:01.182+08:00,1004,2.008000,0,1006,24,1001,2,6.000000,24.000000,1.000000,2.000000
39345,2026-07-30T09:27:01.193+08:00,1005,2.010000,0,989,24,1001,2,-11.000000,24.000000,1.000000,2.000000
39346,2026-07-30T09:27:01.193+08:00,1006,2.012000,0,990,24,999,2,-10.000000,24.000000,-1.000000,2.000000
39347,2026-07-30T09:27:01.193+08:00,1007,2.014000,0,1007,24,997,2,7.000000,24.000000,-3.000000,2.000000
39348,2026-07-30T09:27:01.196+08:00,1008,2.016000,0,1015,24,998,2,15.000000,24.000000,-2.000000,2.000000
39349,2026-07-30T09:27:01.196+08:00,1009,2.018000,0,1001,24,1001,2,1.000000,24.000000,1.000000,2.000000
39350,2026-07-30T09:27:01.196+08:00,1010,2.020000,0,984,24,1002,2,-16.000000,24.000000,2.000000,2.000000
39351,2026-07-30T09:27:01.198+08:00,1011,2.022000,0,986,24,1001,2,-14.000000,24.000000,1.000000,2.000000
39352,2026-07-30T09:27:01.198+08:00,1012,2.024000,0,1004,24,999,2,4.000000,24.000000,-1.000000,2.000000
39353,2026-07-30T09:27:01.206+08:00,1013,2.026000,0,1015,24,998,2,15.000000,24.000000,-2.000000,2.000000
39354,2026-07-30T09:27:01.208+08:00,1014,2.028000,0,1007,24,998,2,7.000000,24.000000,-2.000000,2.000000
39355,2026-07-30T09:27:01.208+08:00,1015,2.030000,0,992,24,999,2,-8.000000,24.000000,-1.000000,2.000000
39356,2026-07-30T09:27:01.208+08:00,1016,2.032000,0,988,24,1001,2,-12.000000,24.000000,1.000000,2.000000
39357,2026-07-30T09:27:01.212+08:00,1017,2.034000,0,997,24,1001,2,-3.000000,24.000000,1.000000,2.000000
39358,2026-07-30T09:27:01.212+08:00,1018,2.036000,0,1005,24,1000,2,5.000000,24.000000,0.000000,2.000000
39359,2026-07-30T09:27:01.212+08:00,1019,2.038000,0,1003,24,999,2,3.000000,24.000000,-1.000000,2.000000
39360,2026-07-30T09:27:01.222+08:00,1020,2.040000,0,998,24,998,2,-2.000000,24.000000,-2.000000,2.000000
39361,2026-07-30T09:27:01.222+08:00,1021,2.042000,0,1000,24,998,2,0.000000,24.000000,-2.000000,2.000000
39362,2026-07-30T09:27:01.222+08:00,1022,2.044000,0,1005,24,999,2,5.000000,24.000000,-1.000000,2.000000
39363,2026-07-30T09:27:01.225+08:00,1023,2.046000,0,1001,24,1001,2,1.000000,24.000000,1.000000,2.000000
39364,2026-07-30T09:27:01.225+08:00,1024,2.048000,0,991,24,1001,2,-9.000000,24.000000,1.000000,2.000000
39365,2026-07-30T09:27:01.225+08:00,1025,2.050000,0,990,22,1000,2,-10.000000,22.000000,0.000000,2.000000
39366,2026-07-30T09:27:01.227+08:00,1026,2.052000,0,1002,22,999,2,2.000000,22.000000,-1.000000,2.000000
39367,2026-07-30T09:27:01.227+08:00,1027,2.054000,0,1013,22,999,2,13.000000,22.000000,-1.000000,2.000000
39368,2026-07-30T09:27:01.237+08:00,1028,2.056000,0,1006,22,999,2,6.000000,22.000000,-1.000000,2.000000
39369,2026-07-30T09:27:01.237+08:00,1029,2.058000,0,991,22,998,2,-9.000000,22.000000,-2.000000,2.000000
39370,2026-07-30T09:27:01.237+08:00,1030,2.060000,0,987,22,998,2,-13.000000,22.000000,-2.000000,2.000000
39371,2026-07-30T09:27:01.240+08:00,1031,2.062000,0,1001,22,1001,2,1.000000,22.000000,1.000000,2.000000
39372,2026-07-30T09:27:01.240+08:00,1032,2.064000,0,1012,22,1003,2,12.000000,22.000000,3.000000,2.000000
39373,2026-07-30T09:27:01.240+08:00,1033,2.066000,0,1002,20,1002,2,2.000000,20.000000,2.000000,2.000000
39374,2026-07-30T09:27:01.241+08:00,1034,2.068000,0,986,20,997,2,-14.000000,20.000000,-3.000000,2.000000
39375,2026-07-30T09:27:01.253+08:00,1035,2.070000,0,992,20,994,2,-8.000000,20.000000,-6.000000,2.000000
39376,2026-07-30T09:27:01.253+08:00,1036,2.072000,0,1014,20,997,2,14.000000,20.000000,-3.000000,2.000000
39377,2026-07-30T09:27:01.253+08:00,1037,2.074000,0,1018,20,1003,2,18.000000,20.000000,3.000000,2.000000
39378,2026-07-30T09:27:01.255+08:00,1038,2.076000,0,994,20,1006,2,-6.000000,20.000000,6.000000,2.000000
39379,2026-07-30T09:27:01.255+08:00,1039,2.078000,0,974,22,1002,2,-26.000000,22.000000,2.000000,2.000000
39380,2026-07-30T09:27:01.255+08:00,1040,2.080000,0,988,22,995,2,-12.000000,22.000000,-5.000000,2.000000
39381,2026-07-30T09:27:01.258+08:00,1041,2.082000,0,1019,22,994,2,19.000000,22.000000,-6.000000,2.000000
39382,2026-07-30T09:27:01.258+08:00,1042,2.084000,0,1025,22,999,2,25.000000,22.000000,-1.000000,2.000000
39383,2026-07-30T09:27:01.267+08:00,1043,2.086000,0,998,22,1003,2,-2.000000,22.000000,3.000000,2.000000
39384,2026-07-30T09:27:01.267+08:00,1044,2.088000,0,974,22,1001,2,-26.000000,22.000000,1.000000,2.000000
39385,2026-07-30T09:27:01.267+08:00,1045,2.090000,0,984,22,998,2,-16.000000,22.000000,-2.000000,2.000000
39386,2026-07-30T09:27:01.270+08:00,1046,2.092000,0,1012,22,999,2,12.000000,22.000000,-1.000000,2.000000
39387,2026-07-30T09:27:01.270+08:00,1047,2.094000,0,1022,22,1001,2,22.000000,22.000000,1.000000,2.000000
39388,2026-07-30T09:27:01.270+08:00,1048,2.096000,0,1004,20,1001,2,4.000000,20.000000,1.000000,2.000000
39389,2026-07-30T09:27:01.272+08:00,1049,2.098000,0,983,20,997,2,-17.000000,20.000000,-3.000000,2.000000
39390,2026-07-30T09:27:01.282+08:00,1050,2.100000,0,983,20,996,2,-17.000000,20.000000,-4.000000,2.000000
39391,2026-07-30T09:27:01.282+08:00,1051,2.102000,0,1001,20,999,2,1.000000,20.000000,-1.000000,2.000000
39392,2026-07-30T09:27:01.282+08:00,1052,2.104000,0,1015,20,1003,2,15.000000,20.000000,3.000000,2.000000
39393,2026-07-30T09:27:01.285+08:00,1053,2.106000,0,1010,20,1003,2,10.000000,20.000000,3.000000,2.000000
39394,2026-07-30T09:27:01.285+08:00,1054,2.108000,0,994,20,999,2,-6.000000,20.000000,-1.000000,2.000000
39395,2026-07-30T09:27:01.285+08:00,1055,2.110000,0,988,20,996,2,-12.000000,20.000000,-4.000000,2.000000
39396,2026-07-30T09:27:01.287+08:00,1056,2.112000,0,1000,20,997,2,0.000000,20.000000,-3.000000,2.000000
39397,2026-07-30T09:27:01.287+08:00,1057,2.114000,0,1009,20,1000,2,9.000000,20.000000,0.000000,2.000000
39398,2026-07-30T09:27:01.297+08:00,1058,2.116000,0,1000,20,1002,2,0.000000,20.000000,2.000000,2.000000
39399,2026-07-30T09:27:01.297+08:00,1059,2.118000,0,984,20,1000,2,-16.000000,20.000000,0.000000,2.000000
39400,2026-07-30T09:27:01.297+08:00,1060,2.120000,0,991,20,998,2,-9.000000,20.000000,-2.000000,2.000000
39401,2026-07-30T09:27:01.299+08:00,1061,2.122000,0,1017,22,998,2,17.000000,22.000000,-2.000000,2.000000
39402,2026-07-30T09:27:01.299+08:00,1062,2.124000,0,1025,22,1001,2,25.000000,22.000000,1.000000,2.000000
39403,2026-07-30T09:27:01.299+08:00,1063,2.126000,0,999,22,1002,2,-1.000000,22.000000,2.000000,2.000000
39404,2026-07-30T09:27:01.301+08:00,1064,2.128000,0,971,22,1000,2,-29.000000,22.000000,0.000000,2.000000
39405,2026-07-30T09:27:01.312+08:00,1065,2.130000,0,978,22,998,2,-22.000000,22.000000,-2.000000,2.000000
39406,2026-07-30T09:27:01.312+08:00,1066,2.132000,0,1009,22,997,2,9.000000,22.000000,-3.000000,2.000000
39407,2026-07-30T09:27:01.312+08:00,1067,2.134000,0,1021,22,998,2,21.000000,22.000000,-2.000000,2.000000
39408,2026-07-30T09:27:01.315+08:00,1068,2.136000,0,1005,22,1001,2,5.000000,22.000000,1.000000,2.000000
39409,2026-07-30T09:27:01.315+08:00,1069,2.138000,0,993,22,1003,2,-7.000000,22.000000,3.000000,2.000000
39410,2026-07-30T09:27:01.315+08:00,1070,2.140000,0,1005,22,1002,2,5.000000,22.000000,2.000000,2.000000
39411,2026-07-30T09:27:01.317+08:00,1071,2.142000,0,1010,22,998,2,10.000000,22.000000,-2.000000,2.000000
39412,2026-07-30T09:27:01.317+08:00,1072,2.144000,0,984,22,995,2,-16.000000,22.000000,-5.000000,2.000000
39413,2026-07-30T09:27:01.326+08:00,1073,2.146000,0,961,22,997,2,-39.000000,22.000000,-3.000000,2.000000
39414,2026-07-30T09:27:01.329+08:00,1074,2.148000,0,989,22,1003,2,-11.000000,22.000000,3.000000,2.000000
39415,2026-07-30T09:27:01.329+08:00,1075,2.150000,0,1044,24,1005,2,44.000000,24.000000,5.000000,2.000000
39416,2026-07-30T09:27:01.329+08:00,1076,2.152000,0,1050,24,1001,2,50.000000,24.000000,1.000000,2.000000
39417,2026-07-30T09:27:01.332+08:00,1077,2.154000,0,990,24,995,2,-10.000000,24.000000,-5.000000,2.000000
39418,2026-07-30T09:27:01.332+08:00,1078,2.156000,0,941,24,995,2,-59.000000,24.000000,-5.000000,2.000000
39419,2026-07-30T09:27:01.332+08:00,1079,2.158000,0,968,24,1001,2,-32.000000,24.000000,1.000000,2.000000
39420,2026-07-30T09:27:01.343+08:00,1080,2.160000,0,1031,24,1004,2,31.000000,24.000000,4.000000,2.000000
39421,2026-07-30T09:27:01.343+08:00,1081,2.162000,0,1044,26,1002,2,44.000000,26.000000,2.000000,2.000000
39422,2026-07-30T09:27:01.343+08:00,1082,2.164000,0,997,24,997,2,-3.000000,24.000000,-3.000000,2.000000
39423,2026-07-30T09:27:01.346+08:00,1083,2.166000,0,963,24,996,2,-37.000000,24.000000,-4.000000,2.000000
39424,2026-07-30T09:27:01.346+08:00,1084,2.168000,0,987,24,999,2,-13.000000,24.000000,-1.000000,2.000000
39425,2026-07-30T09:27:01.346+08:00,1085,2.170000,0,1025,24,1003,2,25.000000,24.000000,3.000000,2.000000
39426,2026-07-30T09:27:01.348+08:00,1086,2.172000,0,1013,24,1003,2,13.000000,24.000000,3.000000,2.000000
39427,2026-07-30T09:27:01.348+08:00,1087,2.174000,0,973,24,999,2,-27.000000,24.000000,-1.000000,2.000000
39428,2026-07-30T09:27:01.357+08:00,1088,2.176000,0,978,24,995,2,-22.000000,24.000000,-5.000000,2.000000
39429,2026-07-30T09:27:01.357+08:00,1089,2.178000,0,1032,24,997,2,32.000000,24.000000,-3.000000,2.000000
39430,2026-07-30T09:27:01.357+08:00,1090,2.180000,0,1049,24,1001,2,49.000000,24.000000,1.000000,2.000000
39431,2026-07-30T09:27:01.360+08:00,1091,2.182000,0,990,24,1004,2,-10.000000,24.000000,4.000000,2.000000
39432,2026-07-30T09:27:01.360+08:00,1092,2.184000,0,929,26,1002,2,-71.000000,26.000000,2.000000,2.000000
39433,2026-07-30T09:27:01.360+08:00,1093,2.186000,0,955,26,999,2,-45.000000,26.000000,-1.000000,2.000000
39434,2026-07-30T09:27:01.362+08:00,1094,2.188000,0,1038,26,996,2,38.000000,26.000000,-4.000000,2.000000
39435,2026-07-30T09:27:01.373+08:00,1095,2.190000,0,1075,28,996,2,75.000000,28.000000,-4.000000,2.000000
39436,2026-07-30T09:27:01.373+08:00,1096,2.192000,0,1026,28,999,2,26.000000,28.000000,-1.000000,2.000000
39437,2026-07-30T09:27:01.373+08:00,1097,2.194000,0,958,28,1003,2,-42.000000,28.000000,3.000000,2.000000
39438,2026-07-30T09:27:01.376+08:00,1098,2.196000,0,943,28,1004,2,-57.000000,28.000000,4.000000,2.000000
39439,2026-07-30T09:27:01.376+08:00,1099,2.198000,0,981,28,999,2,-19.000000,28.000000,-1.000000,2.000000
39440,2026-07-30T09:27:01.376+08:00,1100,2.200000,0,1024,28,995,2,24.000000,28.000000,-5.000000,2.000000
39441,2026-07-30T09:27:01.378+08:00,1101,2.202000,0,1039,30,996,2,39.000000,30.000000,-4.000000,2.000000
39442,2026-07-30T09:27:01.378+08:00,1102,2.204000,0,1023,30,1001,2,23.000000,30.000000,1.000000,2.000000
39443,2026-07-30T09:27:01.387+08:00,1103,2.206000,0,990,30,1003,2,-10.000000,30.000000,3.000000,2.000000
39444,2026-07-30T09:27:01.387+08:00,1104,2.208000,0,966,30,1001,2,-34.000000,30.000000,1.000000,2.000000
39445,2026-07-30T09:27:01.387+08:00,1105,2.210000,0,970,30,997,2,-30.000000,30.000000,-3.000000,2.000000
39446,2026-07-30T09:27:01.390+08:00,1106,2.212000,0,999,30,997,2,-1.000000,30.000000,-3.000000,2.000000
39447,2026-07-30T09:27:01.390+08:00,1107,2.214000,0,1027,30,1000,2,27.000000,30.000000,0.000000,2.000000
39448,2026-07-30T09:27:01.390+08:00,1108,2.216000,0,1031,30,1002,2,31.000000,30.000000,2.000000,2.000000
39449,2026-07-30T09:27:01.392+08:00,1109,2.218000,0,1011,30,1001,2,11.000000,30.000000,1.000000,2.000000
39450,2026-07-30T09:27:01.404+08:00,1110,2.220000,0,981,32,998,2,-19.000000,32.000000,-2.000000,2.000000
39451,2026-07-30T09:27:01.404+08:00,1111,2.222000,0,962,32,997,2,-38.000000,32.000000,-3.000000,2.000000
39452,2026-07-30T09:27:01.404+08:00,1112,2.224000,0,973,32,999,2,-27.000000,32.000000,-1.000000,2.000000
39453,2026-07-30T09:27:01.406+08:00,1113,2.226000,0,1011,32,1001,2,11.000000,32.000000,1.000000,2.000000
39454,2026-07-30T09:27:01.406+08:00,1114,2.228000,0,1044,32,1001,2,44.000000,32.000000,1.000000,2.000000
39455,2026-07-30T09:27:01.406+08:00,1115,2.230000,0,1037,34,1001,2,37.000000,34.000000,1.000000,2.000000
39456,2026-07-30T09:27:01.408+08:00,1116,2.232000,0,993,34,1000,2,-7.000000,34.000000,0.000000,2.000000
39457,2026-07-30T09:27:01.408+08:00,1117,2.234000,0,952,34,998,2,-48.000000,34.000000,-2.000000,2.000000
39458,2026-07-30T09:27:01.417+08:00,1118,2.236000,0,952,34,996,2,-48.000000,34.000000,-4.000000,2.000000
39459,2026-07-30T09:27:01.417+08:00,1119,2.238000,0,999,34,998,2,-1.000000,34.000000,-2.000000,2.000000
39460,2026-07-30T09:27:01.417+08:00,1120,2.240000,0,1055,36,1002,2,55.000000,36.000000,2.000000,2.000000
39461,2026-07-30T09:27:01.420+08:00,1121,2.242000,0,1059,36,1005,2,59.000000,36.000000,5.000000,2.000000
39462,2026-07-30T09:27:01.420+08:00,1122,2.244000,0,990,36,1002,2,-10.000000,36.000000,2.000000,2.000000
39463,2026-07-30T09:27:01.420+08:00,1123,2.246000,0,919,36,997,2,-81.000000,36.000000,-3.000000,2.000000
39464,2026-07-30T09:27:01.422+08:00,1124,2.248000,0,942,38,994,2,-58.000000,38.000000,-6.000000,2.000000
39465,2026-07-30T09:27:01.433+08:00,1125,2.250000,0,1047,38,997,2,47.000000,38.000000,-3.000000,2.000000
39466,2026-07-30T09:27:01.433+08:00,1126,2.252000,0,1104,40,1001,2,104.000000,40.000000,1.000000,2.000000
39467,2026-07-30T09:27:01.433+08:00,1127,2.254000,0,1030,40,1004,2,30.000000,40.000000,4.000000,2.000000
39468,2026-07-30T09:27:01.435+08:00,1128,2.256000,0,912,40,1003,2,-88.000000,40.000000,3.000000,2.000000
39469,2026-07-30T09:27:01.435+08:00,1129,2.258000,0,896,42,999,2,-104.000000,42.000000,-1.000000,2.000000
39470,2026-07-30T09:27:01.435+08:00,1130,2.260000,0,1003,42,996,2,3.000000,42.000000,-4.000000,2.000000
39471,2026-07-30T09:27:01.438+08:00,1131,2.262000,0,1100,44,996,2,100.000000,44.000000,-4.000000,2.000000
39472,2026-07-30T09:27:01.438+08:00,1132,2.264000,0,1080,44,998,2,80.000000,44.000000,-2.000000,2.000000
39473,2026-07-30T09:27:01.447+08:00,1133,2.266000,0,980,44,1001,2,-20.000000,44.000000,1.000000,2.000000
39474,2026-07-30T09:27:01.447+08:00,1134,2.268000,0,918,46,1004,2,-82.000000,46.000000,4.000000,2.000000
39475,2026-07-30T09:27:01.447+08:00,1135,2.270000,0,947,46,1002,2,-53.000000,46.000000,2.000000,2.000000
39476,2026-07-30T09:27:01.450+08:00,1136,2.272000,0,1012,46,997,2,12.000000,46.000000,-3.000000,2.000000
39477,2026-07-30T09:27:01.450+08:00,1137,2.274000,0,1044,48,995,2,44.000000,48.000000,-5.000000,2.000000
39478,2026-07-30T09:27:01.450+08:00,1138,2.276000,0,1034,48,998,2,34.000000,48.000000,-2.000000,2.000000
39479,2026-07-30T09:27:01.452+08:00,1139,2.278000,0,1009,48,1003,2,9.000000,48.000000,3.000000,2.000000
39480,2026-07-30T09:27:01.462+08:00,1140,2.280000,0,986,48,1003,2,-14.000000,48.000000,3.000000,2.000000
39481,2026-07-30T09:27:01.462+08:00,1141,2.282000,0,968,48,999,2,-32.000000,48.000000,-1.000000,2.000000
39482,2026-07-30T09:27:01.462+08:00,1142,2.284000,0,970,48,995,2,-30.000000,48.000000,-5.000000,2.000000
39483,2026-07-30T09:27:01.465+08:00,1143,2.286000,0,1001,48,998,2,1.000000,48.000000,-2.000000,2.000000
39484,2026-07-30T09:27:01.465+08:00,1144,2.288000,0,1035,48,1002,2,35.000000,48.000000,2.000000,2.000000
39485,2026-07-30T09:27:01.465+08:00,1145,2.290000,0,1031,48,1004,2,31.000000,48.000000,4.000000,2.000000
39486,2026-07-30T09:27:01.468+08:00,1146,2.292000,0,991,48,1000,2,-9.000000,48.000000,0.000000,2.000000
39487,2026-07-30T09:27:01.468+08:00,1147,2.294000,0,967,50,995,2,-33.000000,50.000000,-5.000000,2.000000
39488,2026-07-30T09:27:01.475+08:00,1148,2.296000,0,988,50,996,2,-12.000000,50.000000,-4.000000,2.000000
39489,2026-07-30T09:27:01.478+08:00,1149,2.298000,0,1018,50,1001,2,18.000000,50.000000,1.000000,2.000000
39490,2026-07-30T09:27:01.478+08:00,1150,2.300000,0,1014,50,1004,2,14.000000,50.000000,4.000000,2.000000
39491,2026-07-30T09:27:01.478+08:00,1151,2.302000,0,988,50,1002,2,-12.000000,50.000000,2.000000,2.000000
39492,2026-07-30T09:27:01.481+08:00,1152,2.304000,0,983,50,997,2,-17.000000,50.000000,-3.000000,2.000000
39493,2026-07-30T09:27:01.481+08:00,1153,2.306000,0,1006,50,996,4,6.000000,50.000000,-4.000000,4.000000
39494,2026-07-30T09:27:01.481+08:00,1154,2.308000,0,1021,50,998,4,21.000000,50.000000,-2.000000,4.000000
39495,2026-07-30T09:27:01.492+08:00,1155,2.310000,0,1003,50,1002,4,3.000000,50.000000,2.000000,4.000000
