frame_index,recording_sample_index,recording_elapsed_s,button_label,Channel1_raw
0,0,0.000000,0,998
1,1,0.002000,0,1004
2,2,0.004000,0,1007
3,3,0.006000,0,1002
4,4,0.008000,0,993
5,5,0.010000,0,990
6,6,0.012000,0,997
7,7,0.014000,0,1007
8,8,0.016000,0,1009
9,9,0.018000,0,1001
10,10,0.020000,0,992
11,11,0.022000,0,991
12,12,0.024000,0,1000
13,13,0.026000,0,1007
14,14,0.028000,0,1005
15,15,0.030000,0,998
16,16,0.032000,0,993
17,17,0.034000,0,996
18,18,0.036000,0,1002
19,19,0.038000,0,1005
20,20,0.040000,0,1001
21,21,0.042000,0,996
22,22,0.044000,0,995
23,23,0.046000,0,998
24,24,0.048000,0,1004
25,25,0.050000,0,1005
26,26,0.052000,0,1000
27,27,0.054000,0,993
28,28,0.056000,0,992
29,29,0.058000,0,1000
30,30,0.060000,0,1008
31,31,0.062000,0,1007
32,32,0.064000,0,998
33,33,0.066000,0,991
34,34,0.068000,0,994
35,35,0.070000,0,1003
36,36,0.072000,0,1007
37,37,0.074000,0,1003
38,38,0.076000,0,997
39,39,0.078000,0,995
40,40,0.080000,0,997
41,41,0.082000,0,1001
42,42,0.084000,0,1002
43,43,0.086000,0,1002
44,44,0.088000,0,1000
45,45,0.090000,0,998
46,46,0.092000,0,997
47,47,0.094000,0,999
48,48,0.096000,0,1002
49,49,0.098000,0,1001
50,50,0.100000,0,999
51,51,0.102000,0,998
52,52,0.104000,0,999
53,53,0.106000,0,999
54,54,0.108000,0,1000
55,55,0.110000,0,1001
56,56,0.112000,0,1002
57,57,0.114000,0,999
58,58,0.116000,0,996
59,59,0.118000,0,996
60,60,0.120000,0,1000
61,61,0.122000,0,1004
62,62,0.124000,0,1004
63,63,0.126000,0,999
64,64,0.128000,0,995
65,65,0.130000,0,996
66,66,0.132000,0,999
67,67,0.134000,0,1003
68,68,0.136000,0,1003
69,69,0.138000,0,1000
70,70,0.140000,0,997
71,71,0.142000,0,996
72,72,0.144000,0,1000
73,73,0.146000,0,1003
74,74,0.148000,0,1000
75,75,0.150000,0,996
76,76,0.152000,0,997
77,77,0.154000,0,1003
78,78,0.156000,0,1006
79,79,0.158000,0,1000
80,80,0.160000,0,992
81,81,0.162000,0,993
82,82,0.164000,0,1002
83,83,0.166000,0,1009
84,84,0.168000,0,1004
85,85,0.170000,0,994
86,86,0.172000,0,990
87,87,0.174000,0,998
88,88,0.176000,0,1007
89,89,0.178000,0,1006
90,90,0.180000,0,998
91,91,0.182000,0,993
92,92,0.184000,0,998
93,93,0.186000,0,1003
94,94,0.188000,0,1002
95,95,0.190000,0,997
96,96,0.192000,0,996
97,97,0.194000,0,1001
98,98,0.196000,0,1005
99,99,0.198000,0,1001
100,100,0.200000,0,995
101,101,0.202000,0,994
102,102,0.204000,0,998
103,103,0.206000,0,1003
104,104,0.208000,0,1004
105,105,0.210000,0,1001
106,106,0.212000,0,997
107,107,0.214000,0,995
108,108,0.216000,0,997
109,109,0.218000,0,1001
110,110,0.220000,0,1004
111,111,0.222000,0,1002
112,112,0.224000,0,997
113,113,0.226000,0,996
114,114,0.228000,0,999
115,115,0.230000,0,1003
116,116,0.232000,0,1000
117,117,0.234000,0,996
118,118,0.236000,0,997
119,119,0.238000,0,1002
120,120,0.240000,0,1005
121,121,0.242000,0,1000
122,122,0.244000,0,994
123,123,0.246000,0,994
124,124,0.248000,0,1001
125,125,0.250000,0,1006
126,126,0.252000,0,1003
127,127,0.254000,0,995
128,128,0.256000,0,993
129,129,0.258000,0,1000
130,130,0.260000,0,1005
131,131,0.262000,0,1003
132,132,0.264000,0,996
133,133,0.266000,0,995
134,134,0.268000,0,1000
135,135,0.270000,0,1004
136,136,0.272000,0,1001
137,137,0.274000,0,997
138,138,0.276000,0,997
139,139,0.278000,0,1000
140,140,0.280000,0,1002
141,141,0.282000,0,999
142,142,0.284000,0,996
143,143,0.286000,0,999
144,144,0.288000,0,1004
145,145,0.290000,0,1003
146,146,0.292000,0,997
147,147,0.294000,0,993
148,148,0.296000,0,997
149,149,0.298000,0,1004
150,150,0.300000,0,1006
151,151,0.302000,0,1000
152,152,0.304000,0,995
153,153,0.306000,0,995
154,154,0.308000,0,1000
155,155,0.310000,0,1004
156,156,0.312000,0,1003
157,157,0.314000,0,998
158,158,0.316000,0,996
159,159,0.318000,0,997
160,160,0.320000,0,1001
161,161,0.322000,0,1003
162,162,0.324000,0,1001
163,163,0.326000,0,996
164,164,0.328000,0,995
165,165,0.330000,0,999
166,166,0.332000,0,1005
167,167,0.334000,0,1005
168,168,0.336000,0,998
169,169,0.338000,0,992
170,170,0.340000,0,994
171,171,0.342000,0,1003
172,172,0.344000,0,1008
173,173,0.346000,0,1004
174,174,0.348000,0,995
175,175,0.350000,0,992
176,176,0.352000,0,997
177,177,0.354000,0,1005
178,178,0.356000,0,1006
179,179,0.358000,0,999
180,180,0.360000,0,994
181,181,0.362000,0,995
182,182,0.364000,0,1002
183,183,0.366000,0,1006
184,184,0.368000,0,1002
185,185,0.370000,0,996
186,186,0.372000,0,993
187,187,0.374000,0,998
188,188,0.376000,0,1005
189,189,0.378000,0,1005
190,190,0.380000,0,999
191,191,0.382000,0,993
192,192,0.384000,0,996
193,193,0.386000,0,1003
194,194,0.388000,0,1005
195,195,0.390000,0,1000
196,196,0.392000,0,995
197,197,0.394000,0,997
198,198,0.396000,0,1002
199,199,0.398000,0,1003
200,200,0.400000,0,999
201,201,0.402000,0,996
202,202,0.404000,0,998
203,203,0.406000,0,1002
204,204,0.408000,0,1003
205,205,0.410000,0,999
206,206,0.412000,0,995
207,207,0.414000,0,996
208,208,0.416000,0,1002
209,209,0.418000,0,1006
210,210,0.420000,0,1003
211,211,0.422000,0,996
212,212,0.424000,0,992
213,213,0.426000,0,997
214,214,0.428000,0,1005
215,215,0.430000,0,1007
216,216,0.432000,0,999
217,217,0.434000,0,991
218,218,0.436000,0,994
219,219,0.438000,0,1004
220,220,0.440000,0,1008
221,221,0.442000,0,1000
222,222,0.444000,0,991
223,223,0.446000,0,993
224,224,0.448000,0,1003
225,225,0.450000,0,1008
226,226,0.452000,0,1002
227,227,0.454000,0,994
228,228,0.456000,0,992
229,229,0.458000,0,1000
230,230,0.460000,0,1007
231,231,0.462000,0,1005
232,232,0.464000,0,996
233,233,0.466000,0,992
234,234,0.468000,0,996
235,235,0.470000,0,1004
236,236,0.472000,0,1007
237,237,0.474000,0,1001
238,238,0.476000,0,993
239,239,0.478000,0,992
240,240,0.480000,0,1000
241,241,0.482000,0,1007
242,242,0.484000,0,1006
243,243,0.486000,0,997
244,244,0.488000,0,992
245,245,0.490000,0,997
246,246,0.492000,0,1004
247,247,0.494000,0,1004
248,248,0.496000,0,998
249,249,0.498000,0,995
250,250,0.500000,0,1001
251,251,0.502000,0,1004
252,252,0.504000,0,999
253,253,0.506000,0,993
254,254,0.508000,0,995
255,255,0.510000,0,1005
256,256,0.512000,0,1009
257,257,0.514000,0,1002
258,258,0.516000,0,990
259,259,0.518000,0,989
260,260,0.520000,0,1000
261,261,0.522000,0,1011
262,262,0.524000,0,1010
263,263,0.526000,0,997
264,264,0.528000,0,988
265,265,0.530000,0,991
266,266,0.532000,0,1002
267,267,0.534000,0,1009
268,268,0.536000,0,1006
269,269,0.538000,0,997
270,270,0.540000,0,992
271,271,0.542000,0,995
272,272,0.544000,0,1002
273,273,0.546000,0,1006
274,274,0.548000,0,1001
275,275,0.550000,0,995
276,276,0.552000,0,994
277,277,0.554000,0,1001
278,278,0.556000,0,1007
279,279,0.558000,0,1003
280,280,0.560000,0,994
281,281,0.562000,0,991
282,282,0.564000,0,998
283,283,0.566000,0,1007
284,284,0.568000,0,1008
285,285,0.570000,0,999
286,286,0.572000,0,991
287,287,0.574000,0,993
288,288,0.576000,0,1002
289,289,0.578000,0,1007
290,290,0.580000,0,1004
291,291,0.582000,0,996
292,292,0.584000,0,993
293,293,0.586000,0,997
294,294,0.588000,0,1003
295,295,0.590000,0,1005
296,296,0.592000,0,1000
297,297,0.594000,0,995
298,298,0.596000,0,996
299,299,0.598000,0,1001
300,300,0.600000,0,1003
301,301,0.602000,0,1000
302,302,0.604000,0,997
303,303,0.606000,0,999
304,304,0.608000,0,1002
305,305,0.610000,0,1001
306,306,0.612000,0,995
307,307,0.614000,0,995
308,308,0.616000,0,1002
309,309,0.618000,0,1007
310,310,0.620000,0,1003
311,311,0.622000,0,993
312,312,0.624000,0,990
313,313,0.626000,0,999
314,314,0.628000,0,1008
315,315,0.630000,0,1007
316,316,0.632000,0,997
317,317,0.634000,0,991
318,318,0.636000,0,997
319,319,0.638000,0,1005
320,320,0.640000,0,1005
321,321,0.642000,0,997
322,322,0.644000,0,993
323,323,0.646000,0,998
324,324,0.648000,0,1006
325,325,0.650000,0,1005
326,326,0.652000,0,996
327,327,0.654000,0,991
328,328,0.656000,0,997
329,329,0.658000,0,1006
330,330,0.660000,0,1006
331,331,0.662000,0,997
332,332,0.664000,0,993
333,333,0.666000,0,998
334,334,0.668000,0,1004
335,335,0.670000,0,1003
336,336,0.672000,0,997
337,337,0.674000,0,995
338,338,0.676000,0,1000
339,339,0.678000,0,1003
340,340,0.680000,0,1001
341,341,0.682000,0,997
342,342,0.684000,0,996
343,343,0.686000,0,1000
344,344,0.688000,0,1003
345,345,0.690000,0,1001
346,346,0.692000,0,997
347,347,0.694000,0,997
348,348,0.696000,0,1001
349,349,0.698000,0,1003
350,350,0.700000,0,1000
351,351,0.702000,0,996
352,352,0.704000,0,997
353,353,0.706000,0,1001
354,354,0.708000,0,1003
355,355,0.710000,0,1000
356,356,0.712000,0,997
357,357,0.714000,0,997
358,358,0.716000,0,1001
359,359,0.718000,0,1002
360,360,0.720000,0,1001
361,361,0.722000,0,997
362,362,0.724000,0,997
363,363,0.726000,0,1000
364,364,0.728000,0,1003
365,365,0.730000,0,1001
366,366,0.732000,0,996
367,367,0.734000,0,997
368,368,0.736000,0,1001
369,369,0.738000,0,1003
370,370,0.740000,0,1000
371,371,0.742000,0,996
372,372,0.744000,0,998
373,373,0.746000,0,1002
374,374,0.748000,0,1002
375,375,0.750000,0,998
376,376,0.752000,0,996
377,377,0.754000,0,999
378,378,0.756000,0,1003
379,379,0.758000,0,1002
380,380,0.760000,0,997
381,381,0.762000,0,996
382,382,0.764000,0,1000
383,383,0.766000,0,1003
384,384,0.768000,0,1000
385,385,0.770000,0,995
386,386,0.772000,0,997
387,387,0.774000,0,1005
388,388,0.776000,0,1006
389,389,0.778000,0,997
390,390,0.780000,0,990
391,391,0.782000,0,995
392,392,0.784000,0,1006
393,393,0.786000,0,1010
394,394,0.788000,0,1001
395,395,0.790000,0,990
396,396,0.792000,0,992
397,397,0.794000,0,1002
398,398,0.796000,0,1008
399,399,0.798000,0,1002
400,400,0.800000,0,995
401,401,0.802000,0,995
402,402,0.804000,0,1001
403,403,0.806000,0,1003
404,404,0.808000,0,999
405,405,0.810000,0,996
406,406,0.812000,0,999
407,407,0.814000,0,1004
408,408,0.816000,0,1004
409,409,0.818000,0,997
410,410,0.820000,0,992
411,411,0.822000,0,995
412,412,0.824000,0,1005
413,413,0.826000,0,1009
414,414,0.828000,0,1001
415,415,0.830000,0,990
416,416,0.832000,0,991
417,417,0.834000,0,1003
418,418,0.836000,0,1010
419,419,0.838000,0,1003
420,420,0.840000,0,993
421,421,0.842000,0,992
422,422,0.844000,0,1001
423,423,0.846000,0,1007
424,424,0.848000,0,1002
425,425,0.850000,0,993
426,426,0.852000,0,993
427,427,0.854000,0,1002
428,428,0.856000,0,1008
429,429,0.858000,0,1003
430,430,0.860000,0,993
431,431,0.862000,0,991
432,432,0.864000,0,1001
433,433,0.866000,0,1008
434,434,0.868000,0,1003
435,435,0.870000,0,993
436,436,0.872000,0,992
437,437,0.874000,0,1003
438,438,0.876000,0,1009
439,439,0.878000,0,1001
440,440,0.880000,0,989
441,441,0.882000,0,991
442,442,0.884000,0,1005
443,443,0.886000,0,1012
444,444,0.888000,0,1003
445,445,0.890000,0,989
446,446,0.892000,0,988
447,447,0.894000,0,1000
448,448,0.896000,0,1011
449,449,0.898000,0,1008
450,450,0.900000,0,995
451,451,0.902000,0,987
452,452,0.904000,0,995
453,453,0.906000,0,1008
454,454,0.908000,0,1010
455,455,0.910000,0,998
456,456,0.912000,0,988
457,457,0.914000,0,993
458,458,0.916000,0,1007
459,459,0.918000,0,1012
460,460,0.920000,0,1001
461,461,0.922000,0,989
462,462,0.924000,0,991
463,463,0.926000,0,1003
464,464,0.928000,0,1009
465,465,0.930000,0,1003
466,466,0.932000,0,995
467,467,0.934000,0,996
468,468,0.936000,0,1000
469,469,0.938000,0,1001
470,470,0.940000,0,998
471,471,0.942000,0,998
472,472,0.944000,0,1001
473,473,0.946000,0,1003
474,474,0.948000,0,1000
475,475,0.950000,0,995
476,476,0.952000,0,995
477,477,0.954000,0,1001
478,478,0.956000,0,1006
479,479,0.958000,0,1004
480,480,0.960000,0,996
481,481,0.962000,0,991
482,482,0.964000,0,996
483,483,0.966000,0,1006
484,484,0.968000,0,1008
485,485,0.970000,0,1000
486,486,0.972000,0,992
487,487,0.974000,0,993
488,488,0.976000,0,1001
489,489,0.978000,0,1006
490,490,0.980000,0,1003
491,491,0.982000,0,996
492,492,0.984000,0,995
493,493,0.986000,0,1000
494,494,0.988000,0,1003
495,495,0.990000,0,1001
496,496,0.992000,0,997
497,497,0.994000,0,997
498,498,0.996000,0,1001
499,499,0.998000,0,1003
500,500,1.000000,0,999
501,501,1.002000,0,996
502,502,1.004000,0,998
503,503,1.006000,0,1002
504,504,1.008000,0,1003
505,505,1.010000,0,998
506,506,1.012000,0,996
507,507,1.014000,0,999
508,508,1.016000,0,1003
509,509,1.018000,0,1002
510,510,1.020000,0,997
511,511,1.022000,0,996
512,512,1.024000,0,1000
513,513,1.026000,0,1003
514,514,1.028000,0,1001
515,515,1.030000,0,998
516,516,1.032000,0,997
517,517,1.034000,0,1000
518,518,1.036000,0,1000
519,519,1.038000,0,998
520,520,1.040000,0,999
521,521,1.042000,0,1002
522,522,1.044000,0,1003
523,523,1.046000,0,1000
524,524,1.048000,0,994
525,525,1.050000,0,994
526,526,1.052000,0,1001
527,527,1.054000,0,1008
528,528,1.056000,0,1006
529,529,1.058000,0,995
530,530,1.060000,0,989
531,531,1.062000,0,995
532,532,1.064000,0,1007
533,533,1.066000,0,1010
534,534,1.068000,0,1001
535,535,1.070000,0,991
536,536,1.072000,0,991
537,537,1.074000,0,1001
538,538,1.076000,0,1008
539,539,1.078000,0,1005
540,540,1.080000,0,997
541,541,1.082000,0,994
542,542,1.084000,0,998
543,543,1.086000,0,1001
544,544,1.088000,0,1000
545,545,1.090000,0,999
546,546,1.092000,0,1001
547,547,1.094000,0,1003
548,548,1.096000,0,999
549,549,1.098000,0,993
550,550,1.100000,0,994
551,551,1.102000,0,1004
552,552,1.104000,0,1009
553,553,1.106000,0,1001
554,554,1.108000,0,991
555,555,1.110000,0,991
556,556,1.112000,0,1002
557,557,1.114000,0,1009
558,558,1.116000,0,1004
559,559,1.118000,0,994
560,560,1.120000,0,993
561,561,1.122000,0,1000
562,562,1.124000,0,1004
563,563,1.126000,0,1001
564,564,1.128000,0,997
565,565,1.130000,0,999
566,566,1.132000,0,1002
567,567,1.134000,0,999
568,568,1.136000,0,994
569,569,1.138000,0,997
570,570,1.140000,0,1006
571,571,1.142000,0,1008
572,572,1.144000,0,998
573,573,1.146000,0,989
574,574,1.148000,0,993
575,575,1.150000,0,1005
576,576,1.152000,0,1010
577,577,1.154000,0,1002
578,578,1.156000,0,992
579,579,1.158000,0,994
580,580,1.160000,0,1001
581,581,1.162000,0,1004
582,582,1.164000,0,999
583,583,1.166000,0,997
584,584,1.168000,0,1001
585,585,1.170000,0,1004
586,586,1.172000,0,999
587,587,1.174000,0,992
588,588,1.176000,0,995
589,589,1.178000,0,1006
590,590,1.180000,0,1011
591,591,1.182000,0,1000
592,592,1.184000,0,988
593,593,1.186000,0,990
594,594,1.188000,0,1005
595,595,1.190000,0,1012
596,596,1.192000,0,1003
597,597,1.194000,0,991
598,598,1.196000,0,992
599,599,1.198000,0,1002
600,600,1.200000,0,1006
601,601,1.202000,0,1001
602,602,1.204000,0,996
603,603,1.206000,0,999
604,604,1.208000,0,1003
605,605,1.210000,0,999
606,606,1.212000,0,993
607,607,1.214000,0,998
608,608,1.216000,0,1007
609,609,1.218000,0,1007
610,610,1.220000,0,996
611,611,1.222000,0,988
612,612,1.224000,0,995
613,613,1.226000,0,1008
614,614,1.228000,0,1009
615,615,1.230000,0,998
616,616,1.232000,0,990
617,617,1.234000,0,995
618,618,1.236000,0,1005
619,619,1.238000,0,1005
620,620,1.240000,0,998
621,621,1.242000,0,995
622,622,1.244000,0,1000
623,623,1.246000,0,1004
624,624,1.248000,0,1000
625,625,1.250000,0,994
626,626,1.252000,0,996
627,627,1.254000,0,1005
628,628,1.256000,0,1007
629,629,1.258000,0,997
630,630,1.260000,0,989
631,631,1.262000,0,995
632,632,1.264000,0,1008
633,633,1.266000,0,1010
634,634,1.268000,0,998
635,635,1.270000,0,989
636,636,1.272000,0,994
637,637,1.274000,0,1004
638,638,1.276000,0,1006
639,639,1.278000,0,1001
640,640,1.280000,0,996
641,641,1.282000,0,998
642,642,1.284000,0,1001
643,643,1.286000,0,999
644,644,1.288000,0,996
645,645,1.290000,0,1000
646,646,1.292000,0,1005
647,647,1.294000,0,1004
648,648,1.296000,0,996
649,649,1.298000,0,993
650,650,1.300000,0,999
651,651,1.302000,0,1005
652,652,1.304000,0,1003
653,653,1.306000,0,997
654,654,1.308000,0,996
655,655,1.310000,0,1002
656,656,1.312000,0,1003
657,657,1.314000,0,998
658,658,1.316000,0,994
659,659,1.318000,0,998
660,660,1.320000,0,1004
661,661,1.322000,0,1005
662,662,1.324000,0,999
663,663,1.326000,0,994
664,664,1.328000,0,996
665,665,1.330000,0,1003
666,666,1.332000,0,1004
667,667,1.334000,0,999
668,668,1.336000,0,994
669,669,1.338000,0,998
670,670,1.340000,0,1005
671,671,1.342000,0,1004
672,672,1.344000,0,997
673,673,1.346000,0,993
674,674,1.348000,0,997
675,675,1.350000,0,1004
676,676,1.352000,0,1005
677,677,1.354000,0,1000
678,678,1.356000,0,996
679,679,1.358000,0,997
680,680,1.360000,0,1000
681,681,1.362000,0,1000
682,682,1.364000,0,1000
683,683,1.366000,0,1000
684,684,1.368000,0,1003
685,685,1.370000,0,1002
686,686,1.372000,0,996
687,687,1.374000,0,992
688,688,1.376000,0,998
689,689,1.378000,0,1008
690,690,1.380000,0,1008
691,691,1.382000,0,998
692,692,1.384000,0,989
693,693,1.386000,0,993
694,694,1.388000,0,1004
695,695,1.390000,0,1008
696,696,1.392000,0,1003
697,697,1.394000,0,996
698,698,1.396000,0,994
699,699,1.398000,0,998
700,700,1.400000,0,1001
701,701,1.402000,0,1001
702,702,1.404000,0,1002
703,703,1.406000,0,1003
704,704,1.408000,0,1000
705,705,1.410000,0,995
706,706,1.412000,0,992
707,707,1.414000,0,999
708,708,1.416000,0,1009
709,709,1.418000,0,1009
710,710,1.420000,0,996
711,711,1.422000,0,987
712,712,1.424000,0,993
713,713,1.426000,0,1008
714,714,1.428000,0,1012
715,715,1.430000,0,1001
716,716,1.432000,0,989
717,717,1.434000,0,992
718,718,1.436000,0,1004
719,719,1.438000,0,1007
720,720,1.440000,0,1000
721,721,1.442000,0,995
722,722,1.444000,0,999
723,723,1.446000,0,1004
724,724,1.448000,0,1000
725,725,1.450000,0,994
726,726,1.452000,0,996
727,727,1.454000,0,1005
728,728,1.456000,0,1009
729,729,1.458000,0,999
730,730,1.460000,0,988
731,731,1.462000,0,991
732,732,1.464000,0,1006
733,733,1.466000,0,1013
734,734,1.468000,0,1003
735,735,1.470000,0,990
736,736,1.472000,0,990
737,737,1.474000,0,1001
738,738,1.476000,0,1008
739,739,1.478000,0,1003
740,740,1.480000,0,996
741,741,1.482000,0,996
742,742,1.484000,0,1000
743,743,1.486000,0,1001
744,744,1.488000,0,998
745,745,1.490000,0,998
746,746,1.492000,0,1001
747,747,1.494000,0,1002
748,748,1.496000,0,1000
749,749,1.498000,0,998
750,750,1.500000,0,998
751,751,1.502000,0,999
752,752,1.504000,0,1000
753,753,1.506000,0,1001
754,754,1.508000,0,1001
755,755,1.510000,0,999
756,756,1.512000,0,998
757,757,1.514000,0,1000
758,758,1.516000,0,1001
759,759,1.518000,0,1000
760,760,1.520000,0,997
761,761,1.522000,0,997
762,762,1.524000,0,1000
763,763,1.526000,0,1004
764,764,1.528000,0,1002
765,765,1.530000,0,997
766,766,1.532000,0,995
767,767,1.534000,0,998
768,768,1.536000,0,1002
769,769,1.538000,0,1002
770,770,1.540000,0,1000
771,771,1.542000,0,999
772,772,1.544000,0,999
773,773,1.546000,0,998
774,774,1.548000,0,997
775,775,1.550000,0,999
776,776,1.552000,0,1002
777,777,1.554000,0,1004
778,778,1.556000,0,1000
779,779,1.558000,0,995
780,780,1.560000,0,995
781,781,1.562000,0,1000
782,782,1.564000,0,1006
783,783,1.566000,0,1004
784,784,1.568000,0,995
785,785,1.570000,0,991
786,786,1.572000,0,998
787,787,1.574000,0,1008
788,788,1.576000,0,1008
789,789,1.578000,0,998
790,790,1.580000,0,990
791,791,1.582000,0,993
792,792,1.584000,0,1002
793,793,1.586000,0,1007
794,794,1.588000,0,1004
795,795,1.590000,0,997
796,796,1.592000,0,996
797,797,1.594000,0,999
798,798,1.596000,0,999
799,799,1.598000,0,997
800,800,1.600000,0,999
801,801,1.602000,0,1005
802,802,1.604000,0,1006
803,803,1.606000,0,997
804,804,1.608000,0,989
805,805,1.610000,0,994
806,806,1.612000,0,1006
807,807,1.614000,0,1010
808,808,1.616000,0,1002
809,809,1.618000,0,991
810,810,1.620000,0,992
811,811,1.622000,0,1001
812,812,1.624000,0,1006
813,813,1.626000,0,1002
814,814,1.628000,0,996
815,815,1.630000,0,996
816,816,1.632000,0,1000
817,817,1.634000,0,1001
818,818,1.636000,0,999
819,819,1.638000,0,999
820,820,1.640000,0,1002
821,821,1.642000,0,1002
822,822,1.644000,0,996
823,823,1.646000,0,992
824,824,1.648000,0,999
825,825,1.650000,0,1009
826,826,1.652000,0,1008
827,827,1.654000,0,995
828,828,1.656000,0,988
829,829,1.658000,0,995
830,830,1.660000,0,1007
831,831,1.662000,0,1008
832,832,1.664000,0,999
833,833,1.666000,0,993
834,834,1.668000,0,996
835,835,1.670000,0,1002
836,836,1.672000,0,1002
837,837,1.674000,0,998
838,838,1.676000,0,998
839,839,1.678000,0,1003
840,840,1.680000,0,1003
841,841,1.682000,0,997
842,842,1.684000,0,993
843,843,1.686000,0,998
844,844,1.688000,0,1006
845,845,1.690000,0,1005
846,846,1.692000,0,996
847,847,1.694000,0,992
848,848,1.696000,0,998
849,849,1.698000,0,1006
850,850,1.700000,0,1005
851,851,1.702000,0,996
852,852,1.704000,0,992
853,853,1.706000,0,998
854,854,1.708000,0,1006
855,855,1.710000,0,1006
856,856,1.712000,0,999
857,857,1.714000,0,993
858,858,1.716000,0,996
859,859,1.718000,0,1001
860,860,1.720000,0,1003
861,861,1.722000,0,1001
862,862,1.724000,0,1000
863,863,1.726000,0,1001
864,864,1.728000,0,999
865,865,1.730000,0,994
866,866,1.732000,0,994
867,867,1.734000,0,1002
868,868,1.736000,0,1009
869,869,1.738000,0,1006
870,870,1.740000,0,995
871,871,1.742000,0,989
872,872,1.744000,0,995
873,873,1.746000,0,1005
874,874,1.748000,0,1008
875,875,1.750000,0,1001
876,876,1.752000,0,995
877,877,1.754000,0,996
878,878,1.756000,0,1000
879,879,1.758000,0,1000
880,880,1.760000,0,997
881,881,1.762000,0,1000
882,882,1.764000,0,1005
883,883,1.766000,0,1004
884,884,1.768000,0,995
885,885,1.770000,0,991
886,886,1.772000,0,997
887,887,1.774000,0,1006
888,888,1.776000,0,1007
889,889,1.778000,0,999
890,890,1.780000,0,994
891,891,1.782000,0,996
892,892,1.784000,0,1001
893,893,1.786000,0,1003
894,894,1.788000,0,999
895,895,1.790000,0,998
896,896,1.792000,0,1001
897,897,1.794000,0,1002
898,898,1.796000,0,999
899,899,1.798000,0,995
900,900,1.800000,0,996
901,901,1.802000,0,1002
902,902,1.804000,0,1006
903,903,1.806000,0,1001
904,904,1.808000,0,995
905,905,1.810000,0,993
906,906,1.812000,0,1000
907,907,1.814000,0,1007
908,908,1.816000,0,1005
909,909,1.818000,0,995
910,910,1.820000,0,990
911,911,1.822000,0,997
912,912,1.824000,0,1008
913,913,1.826000,0,1009
914,914,1.828000,0,997
915,915,1.830000,0,988
916,916,1.832000,0,992
917,917,1.834000,0,1004
918,918,1.836000,0,1010
919,919,1.838000,0,1005
920,920,1.840000,0,995
921,921,1.842000,0,991
922,922,1.844000,0,995
923,923,1.846000,0,1002
924,924,1.848000,0,1004
925,925,1.850000,0,1004
926,926,1.852000,0,1002
927,927,1.854000,0,998
928,928,1.856000,0,993
929,929,1.858000,0,993
930,930,1.860000,0,1001
931,931,1.862000,0,1009
932,932,1.864000,0,1007
933,933,1.866000,0,996
934,934,1.868000,0,989
935,935,1.870000,0,995
936,936,1.872000,0,1005
937,937,1.874000,0,1008
938,938,1.876000,0,1001
939,939,1.878000,0,993
940,940,1.880000,0,994
941,941,1.882000,0,1001
942,942,1.884000,0,1004
943,943,1.886000,0,1000
944,944,1.888000,0,996
945,945,1.890000,0,998
946,946,1.892000,0,1002
947,947,1.894000,0,1002
948,948,1.896000,0,997
949,949,1.898000,0,996
950,950,1.900000,0,1002
951,951,1.902000,0,1005
952,952,1.904000,0,1000
953,953,1.906000,0,993
954,954,1.908000,0,996
955,955,1.910000,0,1005
956,956,1.912000,0,1007
957,957,1.914000,0,999
958,958,1.916000,0,992
959,959,1.918000,0,995
960,960,1.920000,0,1002
961,961,1.922000,0,1005
962,962,1.924000,0,1001
963,963,1.926000,0,997
964,964,1.928000,0,999
965,965,1.930000,0,1001
966,966,1.932000,0,999
967,967,1.934000,0,997
968,968,1.936000,0,999
969,969,1.938000,0,1004
970,970,1.940000,0,1003
971,971,1.942000,0,997
972,972,1.944000,0,995
973,973,1.946000,0,999
974,974,1.948000,0,1003
975,975,1.950000,0,1000
976,976,1.952000,0,997
977,977,1.954000,0,1001
978,978,1.956000,0,1004
979,979,1.958000,0,1000
980,980,1.960000,0,992
981,981,1.962000,0,993
982,982,1.964000,0,1004
983,983,1.966000,0,1010
984,984,1.968000,0,1001
985,985,1.970000,0,991
986,986,1.972000,0,992
987,987,1.974000,0,1003
988,988,1.976000,0,1008
989,989,1.978000,0,1001
990,990,1.980000,0,992
991,991,1.982000,0,995
992,992,1.984000,0,1003
993,993,1.986000,0,1005
994,994,1.988000,0,999
995,995,1.990000,0,995
996,996,1.992000,0,998
997,997,1.994000,0,1003
998,998,1.996000,0,1001
999,999,1.998000,0,995
1000,1000,2.000000,0,997
1001,1001,2.002000,0,1004
1002,1002,2.004000,0,1006
1003,1003,2.006000,0,997
1004,1004,2.008000,0,990
1005,1005,2.010000,0,996
1006,1006,2.012000,0,1007
1007,1007,2.014000,0,1008
1008,1008,2.016000,0,998
1009,1009,2.018000,0,991
1010,1010,2.020000,0,996
1011,1011,2.022000,0,1004
1012,1012,2.024000,0,1005
1013,1013,2.026000,0,998
1014,1014,2.028000,0,995
1015,1015,2.030000,0,1000
1016,1016,2.032000,0,1004
1017,1017,2.034000,0,1000
1018,1018,2.036000,0,994
1019,1019,2.038000,0,996
1020,1020,2.040000,0,1004
1021,1021,2.042000,0,1007
1022,1022,2.044000,0,1000
1023,1023,2.046000,0,992
1024,1024,2.048000,0,993
1025,1025,2.050000,0,1002
1026,1026,2.052000,0,1007
1027,1027,2.054000,0,1003
1028,1028,2.056000,0,996
1029,1029,2.058000,0,994
1030,1030,2.060000,0,997
1031,1031,2.062000,0,1001
1032,1032,2.064000,0,1003
1033,1033,2.066000,0,1002
1034,1034,2.068000,0,999
1035,1035,2.070000,0,997
1036,1036,2.072000,0,997
1037,1037,2.074000,0,999
1038,1038,2.076000,0,1002
1039,1039,2.078000,0,1002
1040,1040,2.080000,0,1000
1041,1041,2.082000,0,998
1042,1042,2.084000,0,997
1043,1043,2.086000,0,999
1044,1044,2.088000,0,1001
1045,1045,2.090000,0,1001
1046,1046,2.092000,0,1000
1047,1047,2.094000,0,1001
1048,1048,2.096000,0,1000
1049,1049,2.098000,0,997
1050,1050,2.100000,0,995
1051,1051,2.102000,0,1000
1052,1052,2.104000,0,1006
1053,1053,2.106000,0,1005
1054,1054,2.108000,0,996
1055,1055,2.110000,0,990
1056,1056,2.112000,0,995
1057,1057,2.114000,0,1005
1058,1058,2.116000,0,1008
1059,1059,2.118000,0,1001
1060,1060,2.120000,0,994
1061,1061,2.122000,0,994
1062,1062,2.124000,0,1000
1063,1063,2.126000,0,1003
1064,1064,2.128000,0,1001
1065,1065,2.130000,0,1000
1066,1066,2.132000,0,1000
1067,1067,2.134000,0,999
1068,1068,2.136000,0,997
1069,1069,2.138000,0,997
1070,1070,2.140000,0,1001
1071,1071,2.142000,0,1005
1072,1072,2.144000,0,1003
1073,1073,2.146000,0,996
1074,1074,2.148000,0,993
1075,1075,2.150000,0,998
1076,1076,2.152000,0,1005
1077,1077,2.154000,0,1004
1078,1078,2.156000,0,999
1079,1079,2.158000,0,995
1080,1080,2.160000,0,997
1081,1081,2.162000,0,999
1082,1082,2.164000,0,1001
1083,1083,2.166000,0,1002
1084,1084,2.168000,0,1002
1085,1085,2.170000,0,999
1086,1086,2.172000,0,995
1087,1087,2.174000,0,995
1088,1088,2.176000,0,1001
1089,1089,2.178000,0,1006
1090,1090,2.180000,0,1004
1091,1091,2.182000,0,996
1092,1092,2.184000,0,993
1093,1093,2.186000,0,998
1094,1094,2.188000,0,1004
1095,1095,2.190000,0,1003
1096,1096,2.192000,0,998
1097,1097,2.194000,0,996
1098,1098,2.196000,0,1001
1099,1099,2.198000,0,1004
1100,1100,2.200000,0,998
1101,1101,2.202000,0,992
1102,1102,2.204000,0,996
1103,1103,2.206000,0,1007
1104,1104,2.208000,0,1008
1105,1105,2.210000,0,998
1106,1106,2.212000,0,990
1107,1107,2.214000,0,995
1108,1108,2.216000,0,1005
1109,1109,2.218000,0,1006
1110,1110,2.220000,0,999
1111,1111,2.222000,0,995
1112,1112,2.224000,0,998
1113,1113,2.226000,0,1002
1114,1114,2.228000,0,1000
1115,1115,2.230000,0,996
1116,1116,2.232000,0,998
1117,1117,2.234000,0,1003
1118,1118,2.236000,0,1004
1119,1119,2.238000,0,997
1120,1120,2.240000,0,993
1121,1121,2.242000,0,998
1122,1122,2.244000,0,1006
1123,1123,2.246000,0,1006
1124,1124,2.248000,0,997
1125,1125,2.250000,0,990
1126,1126,2.252000,0,996
1127,1127,2.254000,0,1006
1128,1128,2.256000,0,1008
1129,1129,2.258000,0,999
1130,1130,2.260000,0,992
1131,1131,2.262000,0,995
1132,1132,2.264000,0,1002
1133,1133,2.266000,0,1005
1134,1134,2.268000,0,1001
1135,1135,2.270000,0,997
1136,1136,2.272000,0,997
1137,1137,2.274000,0,1000
1138,1138,2.276000,0,1000
1139,1139,2.278000,0,998
1140,1140,2.280000,0,999
1141,1141,2.282000,0,1002
1142,1142,2.284000,0,1002
1143,1143,2.286000,0,998
1144,1144,2.288000,0,995
1145,1145,2.290000,0,998
1146,1146,2.292000,0,1003
1147,1147,2.294000,0,1003
1148,1148,2.296000,0,999
1149,1149,2.298000,0,996
1150,1150,2.300000,0,998
1151,1151,2.302000,0,1000
1152,1152,2.304000,0,1000
1153,1153,2.306000,0,1000
1154,1154,2.308000,0,1000
1155,1155,2.310000,0,1000
1156,1156,2.312000,0,999
1157,1157,2.314000,0,998
1158,1158,2.316000,0,999
1159,1159,2.318000,0,1000
1160,1160,2.320000,0,1001
1161,1161,2.322000,0,999
1162,1162,2.324000,0,999
1163,1163,2.326000,0,1000
1164,1164,2.328000,0,1000
1165,1165,2.330000,0,999
1166,1166,2.332000,0,997
1167,1167,2.334000,0,1000
1168,1168,2.336000,0,1004
1169,1169,2.338000,0,1003
1170,1170,2.340000,0,996
1171,1171,2.342000,0,992
1172,1172,2.344000,0,997
1173,1173,2.346000,0,1006
1174,1174,2.348000,0,1007
1175,1175,2.350000,0,999
1176,1176,2.352000,0,992
1177,1177,2.354000,0,994
1178,1178,2.356000,0,1002
1179,1179,2.358000,0,1005
1180,1180,2.360000,0,1001
1181,1181,2.362000,0,997
1182,1182,2.364000,0,998
1183,1183,2.366000,0,1001
1184,1184,2.368000,0,1001
1185,1185,2.370000,0,998
1186,1186,2.372000,0,997
1187,1187,2.374000,0,1000
1188,1188,2.376000,0,1004
1189,1189,2.378000,0,1002
1190,1190,2.380000,0,996
1191,1191,2.382000,0,995
1192,1192,2.384000,0,1000
1193,1193,2.386000,0,1004
1194,1194,2.388000,0,1001
1195,1195,2.390000,0,997
1196,1196,2.392000,0,997
1197,1197,2.394000,0,1001
1198,1198,2.396000,0,1003
1199,1199,2.398000,0,999
1200,1200,2.400000,0,995
1201,1201,2.402000,0,998
1202,1202,2.404000,0,1003
1203,1203,2.406000,0,1005
1204,1204,2.408000,0,1000
1205,1205,2.410000,0,994
1206,1206,2.412000,0,994
1207,1207,2.414000,0,1002
1208,1208,2.416000,0,1007
1209,1209,2.418000,0,1003
1210,1210,2.420000,0,995
1211,1211,2.422000,0,993
1212,1212,2.424000,0,999
1213,1213,2.426000,0,1005
1214,1214,2.428000,0,1003
1215,1215,2.430000,0,998
1216,1216,2.432000,0,996
1217,1217,2.434000,0,999
1218,1218,2.436000,0,1002
1219,1219,2.438000,0,1000
1220,1220,2.440000,0,997
1221,1221,2.442000,0,998
1222,1222,2.444000,0,1002
1223,1223,2.446000,0,1003
1224,1224,2.448000,0,999
1225,1225,2.450000,0,995
1226,1226,2.452000,0,997
1227,1227,2.454000,0,1002
1228,1228,2.456000,0,1002
1229,1229,2.458000,0,1000
1230,1230,2.460000,0,1000
1231,1231,2.462000,0,1000
1232,1232,2.464000,0,999
1233,1233,2.466000,0,996
1234,1234,2.468000,0,997
1235,1235,2.470000,0,1003
1236,1236,2.472000,0,1006
1237,1237,2.474000,0,1002
1238,1238,2.476000,0,994
1239,1239,2.478000,0,993
1240,1240,2.480000,0,999
1241,1241,2.482000,0,1006
1242,1242,2.484000,0,1004
1243,1243,2.486000,0,997
1244,1244,2.488000,0,994
1245,1245,2.490000,0,999
1246,1246,2.492000,0,1004
1247,1247,2.494000,0,1002
1248,1248,2.496000,0,997
1249,1249,2.498000,0,996
1250,1250,2.500000,0,1000
1251,1251,2.502000,0,1002
1252,1252,2.504000,0,999
1253,1253,2.506000,0,997
1254,1254,2.508000,0,1001
1255,1255,2.510000,0,1004
1256,1256,2.512000,0,1000
1257,1257,2.514000,0,993
1258,1258,2.516000,0,994
1259,1259,2.518000,0,1002
1260,1260,2.520000,0,1009
1261,1261,2.522000,0,1004
1262,1262,2.524000,0,993
1263,1263,2.526000,0,990
1264,1264,2.528000,0,999
1265,1265,2.530000,0,1007
1266,1266,2.532000,0,1005
1267,1267,2.534000,0,998
1268,1268,2.536000,0,995
1269,1269,2.538000,0,999
1270,1270,2.540000,0,1001
1271,1271,2.542000,0,999
1272,1272,2.544000,0,998
1273,1273,2.546000,0,1000
1274,1274,2.548000,0,1002
1275,1275,2.550000,0,1000
1276,1276,2.552000,0,997
1277,1277,2.554000,0,997
1278,1278,2.556000,0,1000
1279,1279,2.558000,0,1003
1280,1280,2.560000,0,1001
1281,1281,2.562000,0,996
1282,1282,2.564000,0,996
1283,1283,2.566000,0,1001
1284,1284,2.568000,0,1004
1285,1285,2.570000,0,1000
1286,1286,2.572000,0,996
1287,1287,2.574000,0,996
1288,1288,2.576000,0,1002
1289,1289,2.578000,0,1004
1290,1290,2.580000,0,1000
1291,1291,2.582000,0,995
1292,1292,2.584000,0,996
1293,1293,2.586000,0,1001
1294,1294,2.588000,0,1004
1295,1295,2.590000,0,1001
1296,1296,2.592000,0,995
1297,1297,2.594000,0,995
1298,1298,2.596000,0,1002
1299,1299,2.598000,0,1005
1300,1300,2.600000,0,1000
1301,1301,2.602000,0,994
1302,1302,2.604000,0,995
1303,1303,2.606000,0,1003
1304,1304,2.608000,0,1007
1305,1305,2.610000,0,1000
1306,1306,2.612000,0,992
1307,1307,2.614000,0,994
1308,1308,2.616000,0,1003
1309,1309,2.618000,0,1007
1310,1310,2.620000,0,1002
1311,1311,2.622000,0,993
1312,1312,2.624000,0,994
1313,1313,2.626000,0,1001
1314,1314,2.628000,0,1005
1315,1315,2.630000,0,1002
1316,1316,2.632000,0,997
1317,1317,2.634000,0,997
1318,1318,2.636000,0,999
1319,1319,2.638000,0,1000
1320,1320,2.640000,0,1000
1321,1321,2.642000,0,1001
1322,1322,2.644000,0,1001
1323,1323,2.646000,0,1000
1324,1324,2.648000,0,997
1325,1325,2.650000,0,996
1326,1326,2.652000,0,999
1327,1327,2.654000,0,1003
1328,1328,2.656000,0,1004
1329,1329,2.658000,0,1000
1330,1330,2.660000,0,994
1331,1331,2.662000,0,994
1332,1332,2.664000,0,1000
1333,1333,2.666000,0,1006
1334,1334,2.668000,0,1005
1335,1335,2.670000,0,997
1336,1336,2.672000,0,993
1337,1337,2.674000,0,996
1338,1338,2.676000,0,1002
1339,1339,2.678000,0,1004
1340,1340,2.680000,0,1001
1341,1341,2.682000,0,997
1342,1342,2.684000,0,997
1343,1343,2.686000,0,999
1344,1344,2.688000,0,1000
1345,1345,2.690000,0,1000
1346,1346,2.692000,0,1000
1347,1347,2.694000,0,1001
1348,1348,2.696000,0,1000
1349,1349,2.698000,0,997
1350,1350,2.700000,0,997
1351,1351,2.702000,0,1000
1352,1352,2.704000,0,1004
1353,1353,2.706000,0,1001
1354,1354,2.708000,0,997
1355,1355,2.710000,0,996
1356,1356,2.712000,0,1000
1357,1357,2.714000,0,1002
1358,1358,2.716000,0,1001
1359,1359,2.718000,0,998
1360,1360,2.720000,0,998
1361,1361,2.722000,0,1001
1362,1362,2.724000,0,1001
1363,1363,2.726000,0,998
1364,1364,2.728000,0,996
1365,1365,2.730000,0,999
1366,1366,2.732000,0,1005
1367,1367,2.734000,0,1004
1368,1368,2.736000,0,996
1369,1369,2.738000,0,991
1370,1370,2.740000,0,997
1371,1371,2.742000,0,1008
1372,1372,2.744000,0,1009
1373,1373,2.746000,0,997
1374,1374,2.748000,0,988
1375,1375,2.750000,0,993
1376,1376,2.752000,0,1006
1377,1377,2.754000,0,1009
1378,1378,2.756000,0,1001
1379,1379,2.758000,0,992
1380,1380,2.760000,0,994
1381,1381,2.762000,0,1002
1382,1382,2.764000,0,1004
1383,1383,2.766000,0,1000
1384,1384,2.768000,0,997
1385,1385,2.770000,0,1000
1386,1386,2.772000,0,1003
1387,1387,2.774000,0,999
1388,1388,2.776000,0,994
1389,1389,2.778000,0,997
1390,1390,2.780000,0,1005
1391,1391,2.782000,0,1007
1392,1392,2.784000,0,998
1393,1393,2.786000,0,990
1394,1394,2.788000,0,994
1395,1395,2.790000,0,1005
1396,1396,2.792000,0,1009
1397,1397,2.794000,0,1000
1398,1398,2.796000,0,991
1399,1399,2.798000,0,994
1400,1400,2.800000,0,1002
1401,1401,2.802000,0,1006
1402,1402,2.804000,0,1002
1403,1403,2.806000,0,997
1404,1404,2.808000,0,997
1405,1405,2.810000,0,999
1406,1406,2.812000,0,999
1407,1407,2.814000,0,998
1408,1408,2.816000,0,1001
1409,1409,2.818000,0,1004
1410,1410,2.820000,0,1002
1411,1411,2.822000,0,994
1412,1412,2.824000,0,991
1413,1413,2.826000,0,998
1414,1414,2.828000,0,1009
1415,1415,2.830000,0,1008
1416,1416,2.832000,0,997
1417,1417,2.834000,0,990
1418,1418,2.836000,0,995
1419,1419,2.838000,0,1005
1420,1420,2.840000,0,1005
1421,1421,2.842000,0,999
1422,1422,2.844000,0,996
1423,1423,2.846000,0,1000
1424,1424,2.848000,0,1002
1425,1425,2.850000,0,999
1426,1426,2.852000,0,994
1427,1427,2.854000,0,998
1428,1428,2.856000,0,1005
1429,1429,2.858000,0,1006
1430,1430,2.860000,0,998
1431,1431,2.862000,0,991
1432,1432,2.864000,0,994
1433,1433,2.866000,0,1004
1434,1434,2.868000,0,1008
1435,1435,2.870000,0,1002
1436,1436,2.872000,0,994
1437,1437,2.874000,0,994
1438,1438,2.876000,0,1000
1439,1439,2.878000,0,1004
1440,1440,2.880000,0,1002
1441,1441,2.882000,0,998
1442,1442,2.884000,0,997
1443,1443,2.886000,0,999
1444,1444,2.888000,0,1000
1445,1445,2.890000,0,1001
1446,1446,2.892000,0,1000
1447,1447,2.894000,0,1000
1448,1448,2.896000,0,998
1449,1449,2.898000,0,997
1450,1450,2.900000,0,998
1451,1451,2.902000,0,1002
1452,1452,2.904000,0,1003
1453,1453,2.906000,0,1000
1454,1454,2.908000,0,996
1455,1455,2.910000,0,997
1456,1456,2.912000,0,1000
1457,1457,2.914000,0,1001
1458,1458,2.916000,0,999
1459,1459,2.918000,0,999
1460,1460,2.920000,0,1002
1461,1461,2.922000,0,1002
1462,1462,2.924000,0,997
1463,1463,2.926000,0,994
1464,1464,2.928000,0,997
1465,1465,2.930000,0,1004
1466,1466,2.932000,0,1005
1467,1467,2.934000,0,1000
1468,1468,2.936000,0,996
1469,1469,2.938000,0,997
1470,1470,2.940000,0,1000
1471,1471,2.942000,0,1001
1472,1472,2.944000,0,998
1473,1473,2.946000,0,999
1474,1474,2.948000,0,1003
1475,1475,2.950000,0,1004
1476,1476,2.952000,0,998
1477,1477,2.954000,0,990
1478,1478,2.956000,0,994
1479,1479,2.958000,0,1007
1480,1480,2.960000,0,1011
1481,1481,2.962000,0,1000
1482,1482,2.964000,0,989
1483,1483,2.966000,0,992
1484,1484,2.968000,0,1004
1485,1485,2.970000,0,1009
1486,1486,2.972000,0,1002
1487,1487,2.974000,0,994
1488,1488,2.976000,0,995
1489,1489,2.978000,0,1001
1490,1490,2.980000,0,1003
1491,1491,2.982000,0,999
1492,1492,2.984000,0,997
1493,1493,2.986000,0,1000
1494,1494,2.988000,0,1003
1495,1495,2.990000,0,999
1496,1496,2.992000,0,994
1497,1497,2.994000,0,997
1498,1498,2.996000,0,1005
1499,1499,2.998000,0,1006
1500,1500,3.000000,0,997
1501,1501,3.002000,0,992
1502,1502,3.004000,0,998
1503,1503,3.006000,0,1006
1504,1504,3.008000,0,1004
1505,1505,3.010000,0,995
1506,1506,3.012000,0,993
1507,1507,3.014000,0,1001
1508,1508,3.016000,0,1006
1509,1509,3.018000,0,1002
1510,1510,3.020000,0,994
1511,1511,3.022000,0,993
1512,1512,3.024000,0,1000
1513,1513,3.026000,0,1006
1514,1514,3.028000,0,1004
1515,1515,3.030000,0,997
1516,1516,3.032000,0,994
1517,1517,3.034000,0,998
1518,1518,3.036000,0,1002
1519,1519,3.038000,0,1002
1520,1520,3.040000,0,1000
1521,1521,3.042000,0,998
1522,1522,3.044000,0,998
1523,1523,3.046000,0,999
1524,1524,3.048000,0,1000
1525,1525,3.050000,0,1002
1526,1526,3.052000,0,1002
1527,1527,3.054000,0,997
1528,1528,3.056000,0,993
1529,1529,3.058000,0,997
1530,1530,3.060000,0,1007
1531,1531,3.062000,0,1009
1532,1532,3.064000,0,997
1533,1533,3.066000,0,986
1534,1534,3.068000,0,992
1535,1535,3.070000,0,1008
1536,1536,3.072000,0,1014
1537,1537,3.074000,0,1002
1538,1538,3.076000,0,988
1539,1539,3.078000,0,989
1540,1540,3.080000,0,1002
1541,1541,3.082000,0,1009
1542,1542,3.084000,0,1004
1543,1543,3.086000,0,996
1544,1544,3.088000,0,995
1545,1545,3.090000,0,1000
1546,1546,3.092000,0,1001
1547,1547,3.094000,0,998
1548,1548,3.096000,0,998
1549,1549,3.098000,0,1002
1550,1550,3.100000,0,1004
1551,1551,3.102000,0,998
1552,1552,3.104000,0,994
1553,1553,3.106000,0,997
1554,1554,3.108000,0,1003
1555,1555,3.110000,0,1004
1556,1556,3.112000,0,999
1557,1557,3.114000,0,996
1558,1558,3.116000,0,999
1559,1559,3.118000,0,1000
1560,1560,3.120000,0,999
1561,1561,3.122000,0,998
1562,1562,3.124000,0,1001
1563,1563,3.126000,0,1004
1564,1564,3.128000,0,1001
1565,1565,3.130000,0,995
1566,1566,3.132000,0,994
1567,1567,3.134000,0,1000
1568,1568,3.136000,0,1005
1569,1569,3.138000,0,1004
1570,1570,3.140000,0,999
1571,1571,3.142000,0,995
1572,1572,3.144000,0,996
1573,1573,3.146000,0,999
1574,1574,3.148000,0,1001
1575,1575,3.150000,0,1002
1576,1576,3.152000,0,1003
1577,1577,3.154000,0,1001
1578,1578,3.156000,0,996
1579,1579,3.158000,0,992
1580,1580,3.160000,0,997
1581,1581,3.162000,0,1007
1582,1582,3.164000,0,1008
1583,1583,3.166000,0,999
1584,1584,3.168000,0,990
1585,1585,3.170000,0,992
1586,1586,3.172000,0,1003
1587,1587,3.174000,0,1009
1588,1588,3.176000,0,1003
1589,1589,3.178000,0,995
1590,1590,3.180000,0,994
1591,1591,3.182000,0,999
1592,1592,3.184000,0,1003
1593,1593,3.186000,0,1000
1594,1594,3.188000,0,997
1595,1595,3.190000,0,1000
1596,1596,3.192000,0,1003
1597,1597,3.194000,0,1001
1598,1598,3.196000,0,996
1599,1599,3.198000,0,994
1600,1600,3.200000,0,1000
1601,1601,3.202000,0,1005
1602,1602,3.204000,0,1004
1603,1603,3.206000,0,997
1604,1604,3.208000,0,994
1605,1605,3.210000,0,998
1606,1606,3.212000,0,1003
1607,1607,3.214000,0,1003
1608,1608,3.216000,0,998
1609,1609,3.218000,0,996
1610,1610,3.220000,0,999
1611,1611,3.222000,0,1004
1612,1612,3.224000,0,1003
1613,1613,3.226000,0,995
1614,1614,3.228000,0,993
1615,1615,3.230000,0,999
1616,1616,3.232000,0,1008
1617,1617,3.234000,0,1006
1618,1618,3.236000,0,996
1619,1619,3.238000,0,990
1620,1620,3.240000,0,996
1621,1621,3.242000,0,1005
1622,1622,3.244000,0,1006
1623,1623,3.246000,0,999
1624,1624,3.248000,0,995
1625,1625,3.250000,0,998
1626,1626,3.252000,0,1002
1627,1627,3.254000,0,1000
1628,1628,3.256000,0,996
1629,1629,3.258000,0,998
1630,1630,3.260000,0,1004
1631,1631,3.262000,0,1004
1632,1632,3.264000,0,998
1633,1633,3.266000,0,993
1634,1634,3.268000,0,997
1635,1635,3.270000,0,1003
1636,1636,3.272000,0,1004
1637,1637,3.274000,0,1000
1638,1638,3.276000,0,996
1639,1639,3.278000,0,998
1640,1640,3.280000,0,1002
1641,1641,3.282000,0,1001
1642,1642,3.284000,0,997
1643,1643,3.286000,0,997
1644,1644,3.288000,0,1002
1645,1645,3.290000,0,1005
1646,1646,3.292000,0,1000
1647,1647,3.294000,0,994
1648,1648,3.296000,0,995
1649,1649,3.298000,0,1001
1650,1650,3.300000,0,1005
1651,1651,3.302000,0,1003
1652,1652,3.304000,0,997
1653,1653,3.306000,0,994
1654,1654,3.308000,0,997
1655,1655,3.310000,0,1004
1656,1656,3.312000,0,1006
1657,1657,3.314000,0,999
1658,1658,3.316000,0,991
1659,1659,3.318000,0,995
1660,1660,3.320000,0,1007
1661,1661,3.322000,0,1011
1662,1662,3.324000,0,1000
1663,1663,3.326000,0,987
1664,1664,3.328000,1,990
1665,1665,3.330000,1,1005
1666,1666,3.332000,1,1013
1667,1667,3.334000,1,1003
1668,1668,3.336000,1,991
1669,1669,3.338000,1,991
1670,1670,3.340000,1,1001
1671,1671,3.342000,1,1005
1672,1672,3.344000,1,1000
1673,1673,3.346000,1,997
1674,1674,3.348000,1,1001
1675,1675,3.350000,1,1004
1676,1676,3.352000,1,998
1677,1677,3.354000,1,990
1678,1678,3.356000,1,995
1679,1679,3.358000,1,1007
1680,1680,3.360000,1,1011
1681,1681,3.362000,1,1000
1682,1682,3.364000,1,988
1683,1683,3.366000,1,991
1684,1684,3.368000,1,1003
1685,1685,3.370000,1,1010
1686,1686,3.372000,1,1004
1687,1687,3.374000,1,994
1688,1688,3.376000,1,993
1689,1689,3.378000,1,1000
1690,1690,3.380000,1,1003
1691,1691,3.382000,1,1001
1692,1692,3.384000,1,998
1693,1693,3.386000,1,999
1694,1694,3.388000,1,1002
1695,1695,3.390000,1,1001
1696,1696,3.392000,1,997
1697,1697,3.394000,1,996
1698,1698,3.396000,1,999
1699,1699,3.398000,1,1002
1700,1700,3.400000,1,1003
1701,1701,3.402000,1,1000
1702,1702,3.404000,1,998
1703,1703,3.406000,1,998
1704,1704,3.408000,1,999
1705,1705,3.410000,1,1000
1706,1706,3.412000,1,999
1707,1707,3.414000,1,998
1708,1708,3.416000,1,1001
1709,1709,3.418000,1,1004
1710,1710,3.420000,1,1002
1711,1711,3.422000,1,995
1712,1712,3.424000,1,992
1713,1713,3.426000,1,998
1714,1714,3.428000,1,1005
1715,1715,3.430000,1,1006
1716,1716,3.432000,1,1002
1717,1717,3.434000,1,996
1718,1718,3.436000,1,995
1719,1719,3.438000,1,996
1720,1720,3.440000,1,998
1721,1721,3.442000,1,1002
1722,1722,3.444000,1,1006
1723,1723,3.446000,1,1006
1724,1724,3.448000,1,998
1725,1725,3.450000,1,989
1726,1726,3.452000,1,990
1727,1727,3.454000,1,1003
1728,1728,3.456000,1,1013
1729,1729,3.458000,1,1007
1730,1730,3.460000,1,992
1731,1731,3.462000,1,989
1732,1732,3.464000,1,1001
1733,1733,3.466000,1,1008
1734,1734,3.468000,1,999
1735,1735,3.470000,1,988
1736,1736,3.472000,1,995
1737,1737,3.474000,1,1014
1738,1738,3.476000,1,1018
1739,1739,3.478000,1,996
1740,1740,3.480000,1,974
1741,1741,3.482000,1,979
1742,1742,3.484000,1,1010
1743,1743,3.486000,1,1031
1744,1744,3.488000,1,1020
1745,1745,3.490000,1,988
1746,1746,3.492000,1,967
1747,1747,3.494000,1,978
1748,1748,3.496000,1,1012
1749,1749,3.498000,1,1031
1750,1750,3.500000,1,1016
1751,1751,3.502000,1,984
1752,1752,3.504000,1,972
1753,1753,3.506000,1,994
1754,1754,3.508000,1,1020
1755,1755,3.510000,1,1017
1756,1756,3.512000,1,991
1757,1757,3.514000,1,977
1758,1758,3.516000,1,992
1759,1759,3.518000,1,1018
1760,1760,3.520000,1,1022
1761,1761,3.522000,1,999
1762,1762,3.524000,1,976
1763,1763,3.526000,1,979
1764,1764,3.528000,1,1005
1765,1765,3.530000,1,1025
1766,1766,3.532000,1,1019
1767,1767,3.534000,1,990
1768,1768,3.536000,1,969
1769,1769,3.538000,1,981
1770,1770,3.540000,1,1017
1771,1771,3.542000,1,1039
1772,1772,3.544000,1,1017
1773,1773,3.546000,1,972
1774,1774,3.548000,1,951
1775,1775,3.550000,1,981
1776,1776,3.552000,1,1034
1777,1777,3.554000,1,1053
1778,1778,3.556000,1,1017
1779,1779,3.558000,1,965
1780,1780,3.560000,1,953
1781,1781,3.562000,1,985
1782,1782,3.564000,1,1023
1783,1783,3.566000,1,1030
1784,1784,3.568000,1,1013
1785,1785,3.570000,1,996
1786,1786,3.572000,1,988
1787,1787,3.574000,1,979
1788,1788,3.576000,1,979
1789,1789,3.578000,1,1003
1790,1790,3.580000,1,1037
1791,1791,3.582000,1,1038
1792,1792,3.584000,1,989
1793,1793,3.586000,1,944
1794,1794,3.588000,1,961
1795,1795,3.590000,1,1025
1796,1796,3.592000,1,1059
1797,1797,3.594000,1,1021
1798,1798,3.596000,1,960
1799,1799,3.598000,1,953
1800,1800,3.600000,1,1007
1801,1801,3.602000,1,1048
1802,1802,3.604000,1,1017
1803,1803,3.606000,1,956
1804,1804,3.608000,1,952
1805,1805,3.610000,1,1018
1806,1806,3.612000,1,1069
1807,1807,3.614000,1,1036
1808,1808,3.616000,1,956
1809,1809,3.618000,1,925
1810,1810,3.620000,1,976
1811,1811,3.622000,1,1046
1812,1812,3.624000,1,1059
1813,1813,3.626000,1,1011
1814,1814,3.628000,1,968
1815,1815,3.630000,1,974
1816,1816,3.632000,1,999
1817,1817,3.634000,1,997
1818,1818,3.636000,1,982
1819,1819,3.638000,1,1001
1820,1820,3.640000,1,1047
1821,1821,3.642000,1,1050
1822,1822,3.644000,1,980
1823,1823,3.646000,1,913
1824,1824,3.648000,1,944
1825,1825,3.650000,1,1049
1826,1826,3.652000,1,1101
1827,1827,3.654000,1,1035
1828,1828,3.656000,1,929
1829,1829,3.658000,1,908
1830,1830,3.660000,1,989
1831,1831,3.662000,1,1072
1832,1832,3.664000,1,1070
1833,1833,3.666000,1,997
1834,1834,3.668000,1,936
1835,1835,3.670000,1,944
1836,1836,3.672000,1,1010
1837,1837,3.674000,1,1062
1838,1838,3.676000,1,1043
1839,1839,3.678000,1,970
1840,1840,3.680000,1,932
1841,1841,3.682000,1,978
1842,1842,3.684000,1,1052
1843,1843,3.686000,1,1059
1844,1844,3.688000,1,994
1845,1845,3.690000,1,945
1846,1846,3.692000,1,965
1847,1847,3.694000,1,1013
1848,1848,3.696000,1,1026
1849,1849,3.698000,1,1007
1850,1850,3.700000,1,1001
1851,1851,3.702000,1,1017
1852,1852,3.704000,1,1011
1853,1853,3.706000,1,967
1854,1854,3.708000,1,940
1855,1855,3.710000,1,985
1856,1856,3.712000,1,1063
1857,1857,3.714000,1,1075
1858,1858,3.716000,1,1001
1859,1859,3.718000,1,929
1860,1860,3.720000,1,943
1861,1861,3.722000,1,1010
1862,1862,3.724000,1,1042
1863,1863,3.726000,1,1019
1864,1864,3.728000,1,992
1865,1865,3.730000,1,995
1866,1866,3.732000,1,1007
1867,1867,3.734000,1,1003
1868,1868,3.736000,1,986
1869,1869,3.738000,1,976
1870,1870,3.740000,1,981
1871,1871,3.742000,1,1005
1872,1872,3.744000,1,1041
1873,1873,3.746000,1,1052
1874,1874,3.748000,1,1007
1875,1875,3.750000,1,937
1876,1876,3.752000,1,919
1877,1877,3.754000,1,987
1878,1878,3.756000,1,1075
1879,1879,3.758000,1,1087
1880,1880,3.760000,1,1012
1881,1881,3.762000,1,930
1882,1882,3.764000,1,919
1883,1883,3.766000,1,984
1884,1884,3.768000,1,1058
1885,1885,3.770000,1,1071
1886,1886,3.772000,1,1013
1887,1887,3.774000,1,948
1888,1888,3.776000,1,944
1889,1889,3.778000,1,995
1890,1890,3.780000,1,1038
1891,1891,3.782000,1,1034
1892,1892,3.784000,1,1005
1893,1893,3.786000,1,984
1894,1894,3.788000,1,975
1895,1895,3.790000,1,974
1896,1896,3.792000,1,1000
1897,1897,3.794000,1,1041
1898,1898,3.796000,1,1045
1899,1899,3.798000,1,987
1900,1900,3.800000,1,931
1901,1901,3.802000,1,955
1902,1902,3.804000,1,1040
1903,1903,3.806000,1,1080
1904,1904,3.808000,1,1025
1905,1905,3.810000,1,941
1906,1906,3.812000,1,927
1907,1907,3.814000,1,992
1908,1908,3.816000,1,1060
1909,1909,3.818000,1,1057
1910,1910,3.820000,1,992
1911,1911,3.822000,1,940
1912,1912,3.824000,1,961
1913,1913,3.826000,1,1031
1914,1914,3.828000,1,1063
1915,1915,3.830000,1,1008
1916,1916,3.832000,1,933
1917,1917,3.834000,1,942
1918,1918,3.836000,1,1035
1919,1919,3.838000,1,1094
1920,1920,3.840000,1,1037
1921,1921,3.842000,1,929
1922,1922,3.844000,1,900
1923,1923,3.846000,1,981
1924,1924,3.848000,1,1077
1925,1925,3.850000,1,1086
1926,1926,3.852000,1,1011
1927,1927,3.854000,1,939
1928,1928,3.856000,1,936
1929,1929,3.858000,1,989
1930,1930,3.860000,1,1035
1931,1931,3.862000,1,1032
1932,1932,3.864000,1,1001
1933,1933,3.866000,1,990
1934,1934,3.868000,1,1008
1935,1935,3.870000,1,1013
1936,1936,3.872000,1,982
1937,1937,3.874000,1,954
1938,1938,3.876000,1,979
1939,1939,3.878000,1,1036
1940,1940,3.880000,1,1058
1941,1941,3.882000,1,1022
1942,1942,3.884000,1,970
1943,1943,3.886000,1,952
1944,1944,3.888000,1,969
1945,1945,3.890000,1,1000
1946,1946,3.892000,1,1031
1947,1947,3.894000,1,1047
1948,1948,3.896000,1,1030
1949,1949,3.898000,1,982
1950,1950,3.900000,1,941
1951,1951,3.902000,1,948
1952,1952,3.904000,1,1002
1953,1953,3.906000,1,1057
1954,1954,3.908000,1,1063
1955,1955,3.910000,1,1013
1956,1956,3.912000,1,954
1957,1957,3.914000,1,936
1958,1958,3.916000,1,969
1959,1959,3.918000,1,1020
1960,1960,3.920000,1,1052
1961,1961,3.922000,1,1051
1962,1962,3.924000,1,1017
1963,1963,3.926000,1,963
1964,1964,3.928000,1,925
1965,1965,3.930000,1,946
1966,1966,3.932000,1,1027
1967,1967,3.934000,1,1091
1968,1968,3.936000,1,1065
1969,1969,3.938000,1,973
1970,1970,3.940000,1,917
1971,1971,3.942000,1,948
1972,1972,3.944000,1,1016
1973,1973,3.946000,1,1047
1974,1974,3.948000,1,1031
1975,1975,3.950000,1,1003
1976,1976,3.952000,1,985
1977,1977,3.954000,1,980
1978,1978,3.956000,1,987
1979,1979,3.958000,1,997
1980,1980,3.960000,1,1001
1981,1981,3.962000,1,1003
1982,1982,3.964000,1,1015
1983,1983,3.966000,1,1025
1984,1984,3.968000,1,1006
1985,1985,3.970000,1,966
1986,1986,3.972000,1,954
1987,1987,3.974000,1,997
1988,1988,3.976000,1,1048
1989,1989,3.978000,1,1042
1990,1990,3.980000,1,986
1991,1991,3.982000,1,954
1992,1992,3.984000,1,984
1993,1993,3.986000,1,1030
1994,1994,3.988000,1,1024
1995,1995,3.990000,1,977
1996,1996,3.992000,1,960
1997,1997,3.994000,1,1004
1998,1998,3.996000,1,1051
1999,1999,3.998000,1,1038
2000,2000,4.000000,1,979
2001,2001,4.002000,1,939
2002,2002,4.004000,1,959
2003,2003,4.006000,1,1014
2004,2004,4.008000,1,1052
2005,2005,4.010000,1,1049
2006,2006,4.012000,1,1011
2007,2007,4.014000,1,963
2008,2008,4.016000,1,933
2009,2009,4.018000,1,953
2010,2010,4.020000,1,1024
2011,2011,4.022000,1,1087
2012,2012,4.024000,1,1065
2013,2013,4.026000,1,972
2014,2014,4.028000,1,910
2015,2015,4.030000,1,947
2016,2016,4.032000,1,1029
2017,2017,4.034000,1,1060
2018,2018,4.036000,1,1024
2019,2019,4.038000,1,987
2020,2020,4.040000,1,984
2021,2021,4.042000,1,989
2022,2022,4.044000,1,984
2023,2023,4.046000,1,990
2024,2024,4.048000,1,1016
2025,2025,4.050000,1,1026
2026,2026,4.052000,1,999
2027,2027,4.054000,1,975
2028,2028,4.056000,1,993
2029,2029,4.058000,1,1024
2030,2030,4.060000,1,1013
2031,2031,4.062000,1,972
2032,2032,4.064000,1,967
2033,2033,4.066000,1,1013
2034,2034,4.068000,1,1045
2035,2035,4.070000,1,1015
2036,2036,4.072000,1,964
2037,2037,4.074000,1,962
2038,2038,4.076000,1,1008
2039,2039,4.078000,1,1039
2040,2040,4.080000,1,1021
2041,2041,4.082000,1,983
2042,2042,4.084000,1,968
2043,2043,4.086000,1,983
2044,2044,4.088000,1,1008
2045,2045,4.090000,1,1025
2046,2046,4.092000,1,1024
2047,2047,4.094000,1,1006
2048,2048,4.096000,1,977
2049,2049,4.098000,1,962
2050,2050,4.100000,1,981
2051,2051,4.102000,1,1021
2052,2052,4.104000,1,1040
2053,2053,4.106000,1,1016
2054,2054,4.108000,1,981
2055,2055,4.110000,1,980
2056,2056,4.112000,1,1002
2057,2057,4.114000,1,1001
2058,2058,4.116000,1,975
2059,2059,4.118000,1,978
2060,2060,4.120000,1,1029
2061,2061,4.122000,1,1065
2062,2062,4.124000,1,1026
2063,2063,4.126000,1,945
2064,2064,4.128000,1,917
2065,2065,4.130000,1,975
2066,2066,4.132000,1,1057
2067,2067,4.134000,1,1081
2068,2068,4.136000,1,1026
2069,2069,4.138000,1,947
2070,2070,4.140000,1,919
2071,2071,4.142000,1,973
2072,2072,4.144000,1,1057
2073,2073,4.146000,1,1080
2074,2074,4.148000,1,1014
2075,2075,4.150000,1,930
2076,2076,4.152000,1,924
2077,2077,4.154000,1,1003
2078,2078,4.156000,1,1077
2079,2079,4.158000,1,1062
2080,2080,4.160000,1,981
2081,2081,4.162000,1,931
2082,2082,4.164000,1,960
2083,2083,4.166000,1,1019
2084,2084,4.168000,1,1039
2085,2085,4.170000,1,1017
2086,2086,4.172000,1,995
2087,2087,4.174000,1,991
2088,2088,4.176000,1,991
2089,2089,4.178000,1,987
2090,2090,4.180000,1,990
2091,2091,4.182000,1,1007
2092,2092,4.184000,1,1023
2093,2093,4.186000,1,1016
2094,2094,4.188000,1,988
2095,2095,4.190000,1,969
2096,2096,4.192000,1,982
2097,2097,4.194000,1,1018
2098,2098,4.196000,1,1036
2099,2099,4.198000,1,1014
2100,2100,4.200000,1,974
2101,2101,4.202000,1,960
2102,2102,4.204000,1,986
2103,2103,4.206000,1,1028
2104,2104,4.208000,1,1043
2105,2105,4.210000,1,1012
2106,2106,4.212000,1,963
2107,2107,4.214000,1,954
2108,2108,4.216000,1,1000
2109,2109,4.218000,1,1047
2110,2110,4.220000,1,1030
2111,2111,4.222000,1,971
2112,2112,4.224000,1,953
2113,2113,4.226000,1,1005
2114,2114,4.228000,1,1052
2115,2115,4.230000,1,1023
2116,2116,4.232000,1,958
2117,2117,4.234000,1,949
2118,2118,4.236000,1,1006
2119,2119,4.238000,1,1049
2120,2120,4.240000,1,1026
2121,2121,4.242000,1,977
2122,2122,4.244000,1,967
2123,2123,4.246000,1,999
2124,2124,4.248000,1,1024
2125,2125,4.250000,1,1013
2126,2126,4.252000,1,983
2127,2127,4.254000,1,973
2128,2128,4.256000,1,998
2129,2129,4.258000,1,1030
2130,2130,4.260000,1,1030
2131,2131,4.262000,1,993
2132,2132,4.264000,1,961
2133,2133,4.266000,1,969
2134,2134,4.268000,1,1011
2135,2135,4.270000,1,1042
2136,2136,4.272000,1,1028
2137,2137,4.274000,1,977
2138,2138,4.276000,1,949
2139,2139,4.278000,1,983
2140,2140,4.280000,1,1044
2141,2141,4.282000,1,1053
2142,2142,4.284000,1,995
2143,2143,4.286000,1,944
2144,2144,4.288000,1,958
2145,2145,4.290000,1,1010
2146,2146,4.292000,1,1037
2147,2147,4.294000,1,1030
2148,2148,4.296000,1,1014
2149,2149,4.298000,1,994
2150,2150,4.300000,1,961
2151,2151,4.302000,1,946
2152,2152,4.304000,1,988
2153,2153,4.306000,1,1061
2154,2154,4.308000,1,1076
2155,2155,4.310000,1,1003
2156,2156,4.312000,1,922
2157,2157,4.314000,1,929
2158,2158,4.316000,1,1015
2159,2159,4.318000,1,1073
2160,2160,4.320000,1,1041
2161,2161,4.322000,1,974
2162,2162,4.324000,1,955
2163,2163,4.326000,1,990
2164,2164,4.328000,1,1015
2165,2165,4.330000,1,1002
2166,2166,4.332000,1,991
2167,2167,4.334000,1,1014
2168,2168,4.336000,1,1033
2169,2169,4.338000,1,1001
2170,2170,4.340000,1,949
2171,2171,4.342000,1,953
2172,2172,4.344000,1,1021
2173,2173,4.346000,1,1075
2174,2174,4.348000,1,1044
2175,2175,4.350000,1,954
2176,2176,4.352000,1,907
2177,2177,4.354000,1,964
2178,2178,4.356000,1,1071
2179,2179,4.358000,1,1102
2180,2180,4.360000,1,1008
2181,2181,4.362000,1,901
2182,2182,4.364000,1,919
2183,2183,4.366000,1,1037
2184,2184,4.368000,1,1094
2185,2185,4.370000,1,1019
2186,2186,4.372000,1,929
2187,2187,4.374000,1,954
2188,2188,4.376000,1,1045
2189,2189,4.378000,1,1059
2190,2190,4.380000,1,979
2191,2191,4.382000,1,928
2192,2192,4.384000,1,981
2193,2193,4.386000,1,1059
2194,2194,4.388000,1,1054
2195,2195,4.390000,1,984
2196,2196,4.392000,1,946
2197,2197,4.394000,1,978
2198,2198,4.396000,1,1021
2199,2199,4.398000,1,1021
2200,2200,4.400000,1,997
2201,2201,4.402000,1,993
2202,2202,4.404000,1,1011
2203,2203,4.406000,1,1013
2204,2204,4.408000,1,987
2205,2205,4.410000,1,967
2206,2206,4.412000,1,984
2207,2207,4.414000,1,1020
2208,2208,4.416000,1,1034
2209,2209,4.418000,1,1017
2210,2210,4.420000,1,993
2211,2211,4.422000,1,978
2212,2212,4.424000,1,971
2213,2213,4.426000,1,979
2214,2214,4.428000,1,1012
2215,2215,4.430000,1,1044
2216,2216,4.432000,1,1029
2217,2217,4.434000,1,979
2218,2218,4.436000,1,960
2219,2219,4.438000,1,994
2220,2220,4.440000,1,1023
2221,2221,4.442000,1,1004
2222,2222,4.444000,1,976
2223,2223,4.446000,1,991
2224,2224,4.448000,1,1032
2225,2225,4.450000,1,1037
2226,2226,4.452000,1,990
2227,2227,4.454000,1,948
2228,2228,4.456000,1,965
2229,2229,4.458000,1,1020
2230,2230,4.460000,1,1046
2231,2231,4.462000,1,1020
2232,2232,4.464000,1,982
2233,2233,4.466000,1,973
2234,2234,4.468000,1,990
2235,2235,4.470000,1,1005
2236,2236,4.472000,1,1007
2237,2237,4.474000,1,1002
2238,2238,4.476000,1,1000
2239,2239,4.478000,1,1009
2240,2240,4.480000,1,1016
2241,2241,4.482000,1,997
2242,2242,4.484000,1,958
2243,2243,4.486000,1,956
2244,2244,4.488000,1,1019
2245,2245,4.490000,1,1085
2246,2246,4.492000,1,1059
2247,2247,4.494000,1,950
2248,2248,4.496000,1,881
2249,2249,4.498000,1,944
2250,2250,4.500000,1,1073
2251,2251,4.502000,1,1120
2252,2252,4.504000,1,1036
2253,2253,4.506000,1,926
2254,2254,4.508000,1,910
2255,2255,4.510000,1,984
2256,2256,4.512000,1,1046
2257,2257,4.514000,1,1041
2258,2258,4.516000,1,1007
2259,2259,4.518000,1,995
2260,2260,4.520000,1,997
2261,2261,4.522000,1,987
2262,2262,4.524000,1,976
2263,2263,4.526000,1,984
2264,2264,4.528000,1,1011
2265,2265,4.530000,1,1031
2266,2266,4.532000,1,1026
2267,2267,4.534000,1,998
2268,2268,4.536000,1,969
2269,2269,4.538000,1,964
2270,2270,4.540000,1,991
2271,2271,4.542000,1,1026
2272,2272,4.544000,1,1035
2273,2273,4.546000,1,1013
2274,2274,4.548000,1,984
2275,2275,4.550000,1,971
2276,2276,4.552000,1,979
2277,2277,4.554000,1,998
2278,2278,4.556000,1,1019
2279,2279,4.558000,1,1034
2280,2280,4.560000,1,1022
2281,2281,4.562000,1,980
2282,2282,4.564000,1,945
2283,2283,4.566000,1,965
2284,2284,4.568000,1,1032
2285,2285,4.570000,1,1070
2286,2286,4.572000,1,1027
2287,2287,4.574000,1,950
2288,2288,4.576000,1,932
2289,2289,4.578000,1,996
2290,2290,4.580000,1,1057
2291,2291,4.582000,1,1040
2292,2292,4.584000,1,977
2293,2293,4.586000,1,954
2294,2294,4.588000,1,996
2295,2295,4.590000,1,1037
2296,2296,4.592000,1,1019
2297,2297,4.594000,1,971
2298,2298,4.596000,1,963
2299,2299,4.598000,1,1007
2300,2300,4.600000,1,1041
2301,2301,4.602000,1,1018
2302,2302,4.604000,1,973
2303,2303,4.606000,1,970
2304,2304,4.608000,1,1009
2305,2305,4.610000,1,1025
2306,2306,4.612000,1,996
2307,2307,4.614000,1,972
2308,2308,4.616000,1,996
2309,2309,4.618000,1,1033
2310,2310,4.620000,1,1024
2311,2311,4.622000,1,975
2312,2312,4.624000,1,954
2313,2313,4.626000,1,994
2314,2314,4.628000,1,1042
2315,2315,4.630000,1,1033
2316,2316,4.632000,1,982
2317,2317,4.634000,1,960
2318,2318,4.636000,1,991
2319,2319,4.638000,1,1025
2320,2320,4.640000,1,1018
2321,2321,4.642000,1,987
2322,2322,4.644000,1,982
2323,2323,4.646000,1,1007
2324,2324,4.648000,1,1019
2325,2325,4.650000,1,998
2326,2326,4.652000,1,976
2327,2327,4.654000,1,988
2328,2328,4.656000,1,1018
2329,2329,4.658000,1,1023
2330,2330,4.660000,1,998
2331,2331,4.662000,1,977
2332,2332,4.664000,1,986
2333,2333,4.666000,1,1007
2334,2334,4.668000,1,1016
2335,2335,4.670000,1,1007
2336,2336,4.672000,1,995
2337,2337,4.674000,1,989
2338,2338,4.676000,1,990
2339,2339,4.678000,1,999
2340,2340,4.680000,1,1011
2341,2341,4.682000,1,1014
2342,2342,4.684000,1,1000
2343,2343,4.686000,1,983
2344,2344,4.688000,1,983
2345,2345,4.690000,1,1002
2346,2346,4.692000,1,1018
2347,2347,4.694000,1,1014
2348,2348,4.696000,1,996
2349,2349,4.698000,1,983
2350,2350,4.700000,1,987
2351,2351,4.702000,1,1003
2352,2352,4.704000,1,1018
2353,2353,4.706000,1,1014
2354,2354,4.708000,1,989
2355,2355,4.710000,1,969
2356,2356,4.712000,1,984
2357,2357,4.714000,1,1025
2358,2358,4.716000,1,1047
2359,2359,4.718000,1,1015
2360,2360,4.720000,1,957
2361,2361,4.722000,1,938
2362,2362,4.724000,1,985
2363,2363,4.726000,1,1050
2364,2364,4.728000,1,1064
2365,2365,4.730000,1,1014
2366,2366,4.732000,1,956
2367,2367,4.734000,1,946
2368,2368,4.736000,1,982
2369,2369,4.738000,1,1020
2370,2370,4.740000,1,1032
2371,2371,4.742000,1,1024
2372,2372,4.744000,1,1008
2373,2373,4.746000,1,989
2374,2374,4.748000,1,969
2375,2375,4.750000,1,966
2376,2376,4.752000,1,995
2377,2377,4.754000,1,1038
2378,2378,4.756000,1,1050
2379,2379,4.758000,1,1007
2380,2380,4.760000,1,950
2381,2381,4.762000,1,945
2382,2382,4.764000,1,1003
2383,2383,4.766000,1,1056
2384,2384,4.768000,1,1043
2385,2385,4.770000,1,983
2386,2386,4.772000,1,951
2387,2387,4.774000,1,976
2388,2388,4.776000,1,1017
2389,2389,4.778000,1,1027
2390,2390,4.780000,1,1012
2391,2391,4.782000,1,997
2392,2392,4.784000,1,989
2393,2393,4.786000,1,985
2394,2394,4.788000,1,992
2395,2395,4.790000,1,1007
2396,2396,4.792000,1,1014
2397,2397,4.794000,1,1005
2398,2398,4.796000,1,992
2399,2399,4.798000,1,991
2400,2400,4.800000,1,1001
2401,2401,4.802000,1,1007
2402,2402,4.804000,1,999
2403,2403,4.806000,1,989
2404,2404,4.808000,1,993
2405,2405,4.810000,1,1009
2406,2406,4.812000,1,1014
2407,2407,4.814000,1,1001
2408,2408,4.816000,1,984
2409,2409,4.818000,1,986
2410,2410,4.820000,1,1006
2411,2411,4.822000,1,1019
2412,2412,4.824000,1,1008
2413,2413,4.826000,1,984
2414,2414,4.828000,1,978
2415,2415,4.830000,1,998
2416,2416,4.832000,1,1021
2417,2417,4.834000,1,1020
2418,2418,4.836000,1,997
2419,2419,4.838000,1,977
2420,2420,4.840000,1,980
2421,2421,4.842000,1,1002
2422,2422,4.844000,1,1018
2423,2423,4.846000,1,1013
2424,2424,4.848000,1,1000
2425,2425,4.850000,1,994
2426,2426,4.852000,1,994
2427,2427,4.854000,1,990
2428,2428,4.856000,1,989
2429,2429,4.858000,1,1004
2430,2430,4.860000,1,1022
2431,2431,4.862000,1,1016
2432,2432,4.864000,1,986
2433,2433,4.866000,1,970
2434,2434,4.868000,1,993
2435,2435,4.870000,1,1025
2436,2436,4.872000,1,1021
2437,2437,4.874000,1,986
2438,2438,4.876000,1,971
2439,2439,4.878000,1,998
2440,2440,4.880000,1,1030
2441,2441,4.882000,1,1021
2442,2442,4.884000,1,980
2443,2443,4.886000,1,962
2444,2444,4.888000,1,992
2445,2445,4.890000,1,1031
2446,2446,4.892000,1,1030
2447,2447,4.894000,1,996
2448,2448,4.896000,1,970
2449,2449,4.898000,1,979
2450,2450,4.900000,1,1007
2451,2451,4.902000,1,1025
2452,2452,4.904000,1,1014
2453,2453,4.906000,1,987
2454,2454,4.908000,1,973
2455,2455,4.910000,1,992
2456,2456,4.912000,1,1024
2457,2457,4.914000,1,1026
2458,2458,4.916000,1,994
2459,2459,4.918000,1,968
2460,2460,4.920000,1,981
2461,2461,4.922000,1,1014
2462,2462,4.924000,1,1026
2463,2463,4.926000,1,1007
2464,2464,4.928000,1,988
2465,2465,4.930000,1,988
2466,2466,4.932000,1,999
2467,2467,4.934000,1,1002
2468,2468,4.936000,1,995
2469,2469,4.938000,1,993
2470,2470,4.940000,1,1004
2471,2471,4.942000,1,1017
2472,2472,4.944000,1,1013
2473,2473,4.946000,1,990
2474,2474,4.948000,1,972
2475,2475,4.950000,1,983
2476,2476,4.952000,1,1013
2477,2477,4.954000,1,1031
2478,2478,4.956000,1,1014
2479,2479,4.958000,1,980
2480,2480,4.960000,1,967
2481,2481,4.962000,1,990
2482,2482,4.964000,1,1025
2483,2483,4.966000,1,1034
2484,2484,4.968000,1,1003
2485,2485,4.970000,1,966
2486,2486,4.972000,1,965
2487,2487,4.974000,1,1004
2488,2488,4.976000,1,1039
2489,2489,4.978000,1,1028
2490,2490,4.980000,1,986
2491,2491,4.982000,1,962
2492,2492,4.984000,1,981
2493,2493,4.986000,1,1019
2494,2494,4.988000,1,1030
2495,2495,4.990000,1,1007
2496,2496,4.992000,1,979
2497,2497,4.994000,1,977
2498,2498,4.996000,1,1001
2499,2499,4.998000,1,1021
2500,2500,5.000000,1,1015
2501,2501,5.002000,1,991
2502,2502,5.004000,1,978
2503,2503,5.006000,1,991
2504,2504,5.008000,1,1015
2505,2505,5.010000,1,1021
2506,2506,5.012000,1,999
2507,2507,5.014000,1,975
2508,2508,5.016000,1,980
2509,2509,5.018000,1,1012
2510,2510,5.020000,1,1033
2511,2511,5.022000,1,1013
2512,2512,5.024000,1,974
2513,2513,5.026000,1,965
2514,2514,5.028000,1,996
2515,2515,5.030000,1,1026
2516,2516,5.032000,1,1023
2517,2517,5.034000,1,999
2518,2518,5.036000,1,985
2519,2519,5.038000,1,990
2520,2520,5.040000,1,995
2521,2521,5.042000,1,995
2522,2522,5.044000,1,1001
2523,2523,5.046000,1,1014
2524,2524,5.048000,1,1016
2525,2525,5.050000,1,1000
2526,2526,5.052000,1,982
2527,2527,5.054000,1,984
2528,2528,5.056000,1,998
2529,2529,5.058000,1,1007
2530,2530,5.060000,1,1007
2531,2531,5.062000,1,1009
2532,2532,5.064000,1,1009
2533,2533,5.066000,1,996
2534,2534,5.068000,1,978
2535,2535,5.070000,1,978
2536,2536,5.072000,1,1006
2537,2537,5.074000,1,1031
2538,2538,5.076000,1,1022
2539,2539,5.078000,1,987
2540,2540,5.080000,1,968
2541,2541,5.082000,1,985
2542,2542,5.084000,1,1014
2543,2543,5.086000,1,1022
2544,2544,5.088000,1,1006
2545,2545,5.090000,1,990
2546,2546,5.092000,1,989
2547,2547,5.094000,1,996
2548,2548,5.096000,1,1001
2549,2549,5.098000,1,1003
2550,2550,5.100000,1,1005
2551,2551,5.102000,1,1004
2552,2552,5.104000,1,998
2553,2553,5.106000,1,992
2554,2554,5.108000,1,993
2555,2555,5.110000,1,1002
2556,2556,5.112000,1,1009
2557,2557,5.114000,1,1005
2558,2558,5.116000,1,994
2559,2559,5.118000,1,988
2560,2560,5.120000,1,996
2561,2561,5.122000,1,1009
2562,2562,5.124000,1,1010
2563,2563,5.126000,1,999
2564,2564,5.128000,1,988
2565,2565,5.130000,1,991
2566,2566,5.132000,1,1003
2567,2567,5.134000,1,1010
2568,2568,5.136000,1,1004
2569,2569,5.138000,1,994
2570,2570,5.140000,1,991
2571,2571,5.142000,1,999
2572,2572,5.144000,1,1006
2573,2573,5.146000,1,1003
2574,2574,5.148000,1,995
2575,2575,5.150000,1,995
2576,2576,5.152000,1,1003
2577,2577,5.154000,1,1006
2578,2578,5.156000,1,999
2579,2579,5.158000,1,992
2580,2580,5.160000,1,995
2581,2581,5.162000,1,1004
2582,2582,5.164000,1,1006
2583,2583,5.166000,1,1000
2584,2584,5.168000,1,996
2585,2585,5.170000,1,998
2586,2586,5.172000,1,1001
2587,2587,5.174000,1,998
2588,2588,5.176000,1,996
2589,2589,5.178000,1,1000
2590,2590,5.180000,1,1006
2591,2591,5.182000,1,1003
2592,2592,5.184000,1,994
2593,2593,5.186000,1,992
2594,2594,5.188000,1,1000
2595,2595,5.190000,1,1007
2596,2596,5.192000,1,1003
2597,2597,5.194000,1,995
2598,2598,5.196000,1,994
2599,2599,5.198000,1,1001
2600,2600,5.200000,1,1004
2601,2601,5.202000,1,1000
2602,2602,5.204000,1,996
2603,2603,5.206000,1,997
2604,2604,5.208000,1,1001
2605,2605,5.210000,1,1002
2606,2606,5.212000,1,999
2607,2607,5.214000,1,998
2608,2608,5.216000,1,1000
2609,2609,5.218000,1,1002
2610,2610,5.220000,1,1000
2611,2611,5.222000,1,996
2612,2612,5.224000,1,995
2613,2613,5.226000,1,1000
2614,2614,5.228000,1,1005
2615,2615,5.230000,1,1004
2616,2616,5.232000,1,999
2617,2617,5.234000,1,994
2618,2618,5.236000,1,995
2619,2619,5.238000,1,1001
2620,2620,5.240000,1,1005
2621,2621,5.242000,1,1000
2622,2622,5.244000,1,996
2623,2623,5.246000,1,998
2624,2624,5.248000,1,1004
2625,2625,5.250000,1,1003
2626,2626,5.252000,1,995
2627,2627,5.254000,1,992
2628,2628,5.256000,1,999
2629,2629,5.258000,1,1007
2630,2630,5.260000,1,1006
2631,2631,5.262000,1,997
2632,2632,5.264000,1,991
2633,2633,5.266000,1,996
2634,2634,5.268000,1,1004
2635,2635,5.270000,1,1006
2636,2636,5.272000,1,1001
2637,2637,5.274000,1,995
2638,2638,5.276000,1,995
2639,2639,5.278000,1,999
2640,2640,5.280000,1,1003
2641,2641,5.282000,1,1002
2642,2642,5.284000,1,999
2643,2643,5.286000,1,997
2644,2644,5.288000,1,998
2645,2645,5.290000,1,1000
2646,2646,5.292000,1,1001
2647,2647,5.294000,1,1000
2648,2648,5.296000,1,999
2649,2649,5.298000,1,1000
2650,2650,5.300000,1,1001
2651,2651,5.302000,1,999
2652,2652,5.304000,1,995
2653,2653,5.306000,1,996
2654,2654,5.308000,1,1003
2655,2655,5.310000,1,1008
2656,2656,5.312000,1,1002
2657,2657,5.314000,1,992
2658,2658,5.316000,1,989
2659,2659,5.318000,1,1000
2660,2660,5.320000,1,1010
2661,2661,5.322000,1,1007
2662,2662,5.324000,1,995
2663,2663,5.326000,1,990
2664,2664,5.328000,1,998
2665,2665,5.330000,1,1007
2666,2666,5.332000,1,1005
2667,2667,5.334000,1,995
2668,2668,5.336000,1,991
2669,2669,5.338000,1,999
2670,2670,5.340000,1,1008
2671,2671,5.342000,1,1007
2672,2672,5.344000,1,998
2673,2673,5.346000,1,992
2674,2674,5.348000,1,995
2675,2675,5.350000,1,1001
2676,2676,5.352000,1,1003
2677,2677,5.354000,1,1001
2678,2678,5.356000,1,1001
2679,2679,5.358000,1,1002
2680,2680,5.360000,1,999
2681,2681,5.362000,1,993
2682,2682,5.364000,1,991
2683,2683,5.366000,1,1001
2684,2684,5.368000,1,1013
2685,2685,5.370000,1,1009
2686,2686,5.372000,1,993
2687,2687,5.374000,1,984
2688,2688,5.376000,0,992
2689,2689,5.378000,0,1009
2690,2690,5.380000,0,1014
2691,2691,5.382000,0,1003
2692,2692,5.384000,0,990
2693,2693,5.386000,0,989
2694,2694,5.388000,0,999
2695,2695,5.390000,0,1007
2696,2696,5.392000,0,1005
2697,2697,5.394000,0,998
2698,2698,5.396000,0,995
2699,2699,5.398000,0,998
2700,2700,5.400000,0,1001
2701,2701,5.402000,0,1000
2702,2702,5.404000,0,998
2703,2703,5.406000,0,999
2704,2704,5.408000,0,1003
2705,2705,5.410000,0,1004
2706,2706,5.412000,0,997
2707,2707,5.414000,0,991
2708,2708,5.416000,0,996
2709,2709,5.418000,0,1007
2710,2710,5.420000,0,1009
2711,2711,5.422000,0,998
2712,2712,5.424000,0,988
2713,2713,5.426000,0,993
2714,2714,5.428000,0,1007
2715,2715,5.430000,0,1012
2716,2716,5.432000,0,1001
2717,2717,5.434000,0,989
2718,2718,5.436000,0,989
2719,2719,5.438000,0,1001
2720,2720,5.440000,0,1011
2721,2721,5.442000,0,1008
2722,2722,5.444000,0,996
2723,2723,5.446000,0,990
2724,2724,5.448000,0,994
2725,2725,5.450000,0,1002
2726,2726,5.452000,0,1005
2727,2727,5.454000,0,1003
2728,2728,5.456000,0,1001
2729,2729,5.458000,0,1000
2730,2730,5.460000,0,995
2731,2731,5.462000,0,992
2732,2732,5.464000,0,997
2733,2733,5.466000,0,1007
2734,2734,5.468000,0,1010
2735,2735,5.470000,0,1000
2736,2736,5.472000,0,990
2737,2737,5.474000,0,991
2738,2738,5.476000,0,1002
2739,2739,5.478000,0,1009
2740,2740,5.480000,0,1002
2741,2741,5.482000,0,994
2742,2742,5.484000,0,995
2743,2743,5.486000,0,1003
2744,2744,5.488000,0,1004
2745,2745,5.490000,0,996
2746,2746,5.492000,0,993
2747,2747,5.494000,0,1002
2748,2748,5.496000,0,1008
2749,2749,5.498000,0,1002
2750,2750,5.500000,0,991
2751,2751,5.502000,0,992
2752,2752,5.504000,0,1003
2753,2753,5.506000,0,1009
2754,2754,5.508000,0,1002
2755,2755,5.510000,0,993
2756,2756,5.512000,0,993
2757,2757,5.514000,0,1002
2758,2758,5.516000,0,1006
2759,2759,5.518000,0,1002
2760,2760,5.520000,0,996
2761,2761,5.522000,0,995
2762,2762,5.524000,0,1000
2763,2763,5.526000,0,1003
2764,2764,5.528000,0,1001
2765,2765,5.530000,0,998
2766,2766,5.532000,0,997
2767,2767,5.534000,0,999
2768,2768,5.536000,0,1000
2769,2769,5.538000,0,1001
2770,2770,5.540000,0,1001
2771,2771,5.542000,0,1000
2772,2772,5.544000,0,998
2773,2773,5.546000,0,997
2774,2774,5.548000,0,999
2775,2775,5.550000,0,1002
2776,2776,5.552000,0,1003
2777,2777,5.554000,0,1001
2778,2778,5.556000,0,998
2779,2779,5.558000,0,996
2780,2780,5.560000,0,997
2781,2781,5.562000,0,1000
2782,2782,5.564000,0,1004
2783,2783,5.566000,0,1004
2784,2784,5.568000,0,999
2785,2785,5.570000,0,994
2786,2786,5.572000,0,995
2787,2787,5.574000,0,1000
2788,2788,5.576000,0,1003
2789,2789,5.578000,0,1002
2790,2790,5.580000,0,1000
2791,2791,5.582000,0,1000
2792,2792,5.584000,0,998
2793,2793,5.586000,0,996
2794,2794,5.588000,0,995
2795,2795,5.590000,0,1000
2796,2796,5.592000,0,1007
2797,2797,5.594000,0,1006
2798,2798,5.596000,0,996
2799,2799,5.598000,0,988
2800,2800,5.600000,0,994
2801,2801,5.602000,0,1006
2802,2802,5.604000,0,1010
2803,2803,5.606000,0,1001
2804,2804,5.608000,0,993
2805,2805,5.610000,0,994
2806,2806,5.612000,0,1001
2807,2807,5.614000,0,1004
2808,2808,5.616000,0,1001
2809,2809,5.618000,0,997
2810,2810,5.620000,0,998
2811,2811,5.622000,0,1002
2812,2812,5.624000,0,1003
2813,2813,5.626000,0,998
2814,2814,5.628000,0,995
2815,2815,5.630000,0,998
2816,2816,5.632000,0,1004
2817,2817,5.634000,0,1004
2818,2818,5.636000,0,999
2819,2819,5.638000,0,995
2820,2820,5.640000,0,996
2821,2821,5.642000,0,1000
2822,2822,5.644000,0,1002
2823,2823,5.646000,0,1001
2824,2824,5.648000,0,999
2825,2825,5.650000,0,999
2826,2826,5.652000,0,1000
2827,2827,5.654000,0,999
2828,2828,5.656000,0,998
2829,2829,5.658000,0,999
2830,2830,5.660000,0,1001
2831,2831,5.662000,0,1002
2832,2832,5.664000,0,999
2833,2833,5.666000,0,997
2834,2834,5.668000,0,999
2835,2835,5.670000,0,1002
2836,2836,5.672000,0,1002
2837,2837,5.674000,0,998
2838,2838,5.676000,0,995
2839,2839,5.678000,0,998
2840,2840,5.680000,0,1004
2841,2841,5.682000,0,1004
2842,2842,5.684000,0,999
2843,2843,5.686000,0,995
2844,2844,5.688000,0,997
2845,2845,5.690000,0,1002
2846,2846,5.692000,0,1003
2847,2847,5.694000,0,999
2848,2848,5.696000,0,996
2849,2849,5.698000,0,999
2850,2850,5.700000,0,1004
2851,2851,5.702000,0,1003
2852,2852,5.704000,0,996
2853,2853,5.706000,0,993
2854,2854,5.708000,0,998
2855,2855,5.710000,0,1006
2856,2856,5.712000,0,1007
2857,2857,5.714000,0,999
2858,2858,5.716000,0,992
2859,2859,5.718000,0,994
2860,2860,5.720000,0,1001
2861,2861,5.722000,0,1005
2862,2862,5.724000,0,1002
2863,2863,5.726000,0,999
2864,2864,5.728000,0,998
2865,2865,5.730000,0,998
2866,2866,5.732000,0,997
2867,2867,5.734000,0,998
2868,2868,5.736000,0,1003
2869,2869,5.738000,0,1006
2870,2870,5.740000,0,1002
2871,2871,5.742000,0,992
2872,2872,5.744000,0,990
2873,2873,5.746000,0,999
2874,2874,5.748000,0,1010
2875,2875,5.750000,0,1008
2876,2876,5.752000,0,996
2877,2877,5.754000,0,989
2878,2878,5.756000,0,994
2879,2879,5.758000,0,1005
2880,2880,5.760000,0,1007
2881,2881,5.762000,0,1000
2882,2882,5.764000,0,995
2883,2883,5.766000,0,997
2884,2884,5.768000,0,1002
2885,2885,5.770000,0,1000
2886,2886,5.772000,0,996
2887,2887,5.774000,0,997
2888,2888,5.776000,0,1004
2889,2889,5.778000,0,1006
2890,2890,5.780000,0,998
2891,2891,5.782000,0,991
2892,2892,5.784000,0,995
2893,2893,5.786000,0,1004
2894,2894,5.788000,0,1007
2895,2895,5.790000,0,1001
2896,2896,5.792000,0,994
2897,2897,5.794000,0,996
2898,2898,5.796000,0,1001
2899,2899,5.798000,0,1002
2900,2900,5.800000,0,998
2901,2901,5.802000,0,998
2902,2902,5.804000,0,1002
2903,2903,5.806000,0,1004
2904,2904,5.808000,0,1000
2905,2905,5.810000,0,995
2906,2906,5.812000,0,995
2907,2907,5.814000,0,1001
2908,2908,5.816000,0,1005
2909,2909,5.818000,0,1003
2910,2910,5.820000,0,998
2911,2911,5.822000,0,995
2912,2912,5.824000,0,997
2913,2913,5.826000,0,1002
2914,2914,5.828000,0,1003
2915,2915,5.830000,0,999
2916,2916,5.832000,0,995
2917,2917,5.834000,0,998
2918,2918,5.836000,0,1004
2919,2919,5.838000,0,1004
2920,2920,5.840000,0,997
2921,2921,5.842000,0,993
2922,2922,5.844000,0,997
2923,2923,5.846000,0,1005
2924,2924,5.848000,0,1006
2925,2925,5.850000,0,999
2926,2926,5.852000,0,993
2927,2927,5.854000,0,995
2928,2928,5.856000,0,1002
2929,2929,5.858000,0,1005
2930,2930,5.860000,0,1000
2931,2931,5.862000,0,996
2932,2932,5.864000,0,997
2933,2933,5.866000,0,1001
2934,2934,5.868000,0,1002
2935,2935,5.870000,0,998
2936,2936,5.872000,0,997
2937,2937,5.874000,0,1000
2938,2938,5.876000,0,1003
2939,2939,5.878000,0,1001
2940,2940,5.880000,0,997
2941,2941,5.882000,0,995
2942,2942,5.884000,0,1000
2943,2943,5.886000,0,1005
2944,2944,5.888000,0,1003
2945,2945,5.890000,0,996
2946,2946,5.892000,0,992
2947,2947,5.894000,0,998
2948,2948,5.896000,0,1007
2949,2949,5.898000,0,1007
2950,2950,5.900000,0,998
2951,2951,5.902000,0,990
2952,2952,5.904000,0,993
2953,2953,5.906000,0,1003
2954,2954,5.908000,0,1009
2955,2955,5.910000,0,1004
2956,2956,5.912000,0,994
2957,2957,5.914000,0,990
2958,2958,5.916000,0,998
2959,2959,5.918000,0,1007
2960,2960,5.920000,0,1007
2961,2961,5.922000,0,998
2962,2962,5.924000,0,992
2963,2963,5.926000,0,995
2964,2964,5.928000,0,1003
2965,2965,5.930000,0,1005
2966,2966,5.932000,0,1000
2967,2967,5.934000,0,996
2968,2968,5.936000,0,998
2969,2969,5.938000,0,1001
2970,2970,5.940000,0,1001
2971,2971,5.942000,0,998
2972,2972,5.944000,0,998
2973,2973,5.946000,0,1001
2974,2974,5.948000,0,1003
2975,2975,5.950000,0,1000
2976,2976,5.952000,0,997
2977,2977,5.954000,0,997
2978,2978,5.956000,0,1000
2979,2979,5.958000,0,1003
2980,2980,5.960000,0,1001
2981,2981,5.962000,0,997
2982,2982,5.964000,0,996
2983,2983,5.966000,0,1001
2984,2984,5.968000,0,1005
2985,2985,5.970000,0,1002
2986,2986,5.972000,0,996
2987,2987,5.974000,0,993
2988,2988,5.976000,0,997
2989,2989,5.978000,0,1005
2990,2990,5.980000,0,1008
2991,2991,5.982000,0,1001
2992,2992,5.984000,0,991
2993,2993,5.986000,0,991
2994,2994,5.988000,0,1002
2995,2995,5.990000,0,1009
2996,2996,5.992000,0,1003
2997,2997,5.994000,0,993
2998,2998,5.996000,0,994
2999,2999,5.998000,0,1003
3000,3000,6.000000,0,1006
3001,3001,6.002000,0,999
3002,3002,6.004000,0,992
3003,3003,6.006000,0,996
3004,3004,6.008000,0,1005
3005,3005,6.010000,0,1006
3006,3006,6.012000,0,998
3007,3007,6.014000,0,992
3008,3008,6.016000,0,996
3009,3009,6.018000,0,1005
3010,3010,6.020000,0,1006
3011,3011,6.022000,0,998
3012,3012,6.024000,0,993
3013,3013,6.026000,0,997
3014,3014,6.028000,0,1004
3015,3015,6.030000,0,1005
3016,3016,6.032000,0,999
3017,3017,6.034000,0,994
3018,3018,6.036000,0,997
3019,3019,6.038000,0,1003
3020,3020,6.040000,0,1003
3021,3021,6.042000,0,999
3022,3022,6.044000,0,996
3023,3023,6.046000,0,999
3024,3024,6.048000,0,1003
3025,3025,6.050000,0,1003
3026,3026,6.052000,0,998
3027,3027,6.054000,0,995
3028,3028,6.056000,0,998
3029,3029,6.058000,0,1003
3030,3030,6.060000,0,1004
3031,3031,6.062000,0,999
3032,3032,6.064000,0,996
3033,3033,6.066000,0,997
3034,3034,6.068000,0,1002
3035,3035,6.070000,0,1003
3036,3036,6.072000,0,998
3037,3037,6.074000,0,994
3038,3038,6.076000,0,998
3039,3039,6.078000,0,1005
3040,3040,6.080000,0,1006
3041,3041,6.082000,0,998
3042,3042,6.084000,0,991
3043,3043,6.086000,0,995
3044,3044,6.088000,0,1004
3045,3045,6.090000,0,1007
3046,3046,6.092000,0,1001
3047,3047,6.094000,0,994
3048,3048,6.096000,0,995
3049,3049,6.098000,0,1002
3050,3050,6.100000,0,1005
3051,3051,6.102000,0,1000
3052,3052,6.104000,0,994
3053,3053,6.106000,0,997
3054,3054,6.108000,0,1003
3055,3055,6.110000,0,1004
3056,3056,6.112000,0,1000
3057,3057,6.114000,0,996
3058,3058,6.116000,0,997
3059,3059,6.118000,0,1001
3060,3060,6.120000,0,1003
3061,3061,6.122000,0,1000
3062,3062,6.124000,0,996
3063,3063,6.126000,0,997
3064,3064,6.128000,0,1002
3065,3065,6.130000,0,1004
3066,3066,6.132000,0,1000
3067,3067,6.134000,0,994
3068,3068,6.136000,0,995
3069,3069,6.138000,0,1002
3070,3070,6.140000,0,1005
3071,3071,6.142000,0,1002
3072,3072,6.144000,0,996
3073,3073,6.146000,0,995
3074,3074,6.148000,0,1000
3075,3075,6.150000,0,1004
3076,3076,6.152000,0,1003
3077,3077,6.154000,0,996
3078,3078,6.156000,0,993
3079,3079,6.158000,0,998
3080,3080,6.160000,0,1007
3081,3081,6.162000,0,1007
3082,3082,6.164000,0,997
3083,3083,6.166000,0,990
3084,3084,6.168000,0,994
3085,3085,6.170000,0,1005
3086,3086,6.172000,0,1008
3087,3087,6.174000,0,1001
3088,3088,6.176000,0,994
3089,3089,6.178000,0,995
3090,3090,6.180000,0,1000
3091,3091,6.182000,0,1001
3092,3092,6.184000,0,998
3093,3093,6.186000,0,999
3094,3094,6.188000,0,1004
3095,3095,6.190000,0,1004
3096,3096,6.192000,0,996
3097,3097,6.194000,0,990
3098,3098,6.196000,0,997
3099,3099,6.198000,0,1009
3100,3100,6.200000,0,1009
3101,3101,6.202000,0,998
3102,3102,6.204000,0,989
3103,3103,6.206000,0,994
3104,3104,6.208000,0,1004
3105,3105,6.210000,0,1007
3106,3106,6.212000,0,1000
3107,3107,6.214000,0,995
3108,3108,6.216000,0,997
3109,3109,6.218000,0,1001
3110,3110,6.220000,0,1001
3111,3111,6.222000,0,998
3112,3112,6.224000,0,998
3113,3113,6.226000,0,1002
3114,3114,6.228000,0,1003
3115,3115,6.230000,0,998
3116,3116,6.232000,0,993
3117,3117,6.234000,0,998
3118,3118,6.236000,0,1006
3119,3119,6.238000,0,1006
3120,3120,6.240000,0,997
3121,3121,6.242000,0,990
3122,3122,6.244000,0,994
3123,3123,6.246000,0,1005
3124,3124,6.248000,0,1009
3125,3125,6.250000,0,1002
3126,3126,6.252000,0,993
3127,3127,6.254000,0,993
3128,3128,6.256000,0,1000
3129,3129,6.258000,0,1005
3130,3130,6.260000,0,1002
3131,3131,6.262000,0,999
3132,3132,6.264000,0,999
3133,3133,6.266000,0,1000
3134,3134,6.268000,0,997
3135,3135,6.270000,0,994
3136,3136,6.272000,0,999
3137,3137,6.274000,0,1008
3138,3138,6.276000,0,1008
3139,3139,6.278000,0,997
3140,3140,6.280000,0,987
3141,3141,6.282000,0,992
3142,3142,6.284000,0,1006
3143,3143,6.286000,0,1011
3144,3144,6.288000,0,1003
3145,3145,6.290000,0,993
3146,3146,6.292000,0,992
3147,3147,6.294000,0,999
3148,3148,6.296000,0,1003
3149,3149,6.298000,0,1001
3150,3150,6.300000,0,1000
3151,3151,6.302000,0,1003
3152,3152,6.304000,0,1003
3153,3153,6.306000,0,995
3154,3154,6.308000,0,990
3155,3155,6.310000,0,996
3156,3156,6.312000,0,1009
3157,3157,6.314000,0,1013
3158,3158,6.316000,0,1000
3159,3159,6.318000,0,986
3160,3160,6.320000,0,987
3161,3161,6.322000,0,1002
3162,3162,6.324000,0,1012
3163,3163,6.326000,0,1008
3164,3164,6.328000,0,996
3165,3165,6.330000,0,990
3166,3166,6.332000,0,995
3167,3167,6.334000,0,1003
3168,3168,6.336000,0,1004
3169,3169,6.338000,0,1001
3170,3170,6.340000,0,1000
3171,3171,6.342000,0,1000
3172,3172,6.344000,0,997
3173,3173,6.346000,0,995
3174,3174,6.348000,0,998
3175,3175,6.350000,0,1004
3176,3176,6.352000,0,1005
3177,3177,6.354000,0,999
3178,3178,6.356000,0,994
3179,3179,6.358000,0,996
3180,3180,6.360000,0,1002
3181,3181,6.362000,0,1004
3182,3182,6.364000,0,1000
3183,3183,6.366000,0,996
3184,3184,6.368000,0,997
3185,3185,6.370000,0,1001
3186,3186,6.372000,0,1002
3187,3187,6.374000,0,999
3188,3188,6.376000,0,998
3189,3189,6.378000,0,1000
3190,3190,6.380000,0,1002
3191,3191,6.382000,0,998
3192,3192,6.384000,0,995
3193,3193,6.386000,0,998
3194,3194,6.388000,0,1005
3195,3195,6.390000,0,1005
3196,3196,6.392000,0,998
3197,3197,6.394000,0,992
3198,3198,6.396000,0,994
3199,3199,6.398000,0,1003
3200,3200,6.400000,0,1008
3201,3201,6.402000,0,1003
3202,3202,6.404000,0,995
3203,3203,6.406000,0,993
3204,3204,6.408000,0,998
3205,3205,6.410000,0,1003
3206,3206,6.412000,0,1003
3207,3207,6.414000,0,1001
3208,3208,6.416000,0,1000
3209,3209,6.418000,0,999
3210,3210,6.420000,0,996
3211,3211,6.422000,0,995
3212,3212,6.424000,0,999
3213,3213,6.426000,0,1006
3214,3214,6.428000,0,1006
3215,3215,6.430000,0,998
3216,3216,6.432000,0,992
3217,3217,6.434000,0,994
3218,3218,6.436000,0,1002
3219,3219,6.438000,0,1006
3220,3220,6.440000,0,1002
3221,3221,6.442000,0,997
3222,3222,6.444000,0,997
3223,3223,6.446000,0,1001
3224,3224,6.448000,0,1001
3225,3225,6.450000,0,998
3226,3226,6.452000,0,996
3227,3227,6.454000,0,1000
3228,3228,6.456000,0,1005
3229,3229,6.458000,0,1003
3230,3230,6.460000,0,997
3231,3231,6.462000,0,993
3232,3232,6.464000,0,996
3233,3233,6.466000,0,1003
3234,3234,6.468000,0,1004
3235,3235,6.470000,0,1000
3236,3236,6.472000,0,997
3237,3237,6.474000,0,998
3238,3238,6.476000,0,1002
3239,3239,6.478000,0,1000
3240,3240,6.480000,0,996
3241,3241,6.482000,0,996
3242,3242,6.484000,0,1002
3243,3243,6.486000,0,1007
3244,3244,6.488000,0,1003
3245,3245,6.490000,0,994
3246,3246,6.492000,0,990
3247,3247,6.494000,0,998
3248,3248,6.496000,0,1007
3249,3249,6.498000,0,1008
3250,3250,6.500000,0,1000
3251,3251,6.502000,0,993
3252,3252,6.504000,0,994
3253,3253,6.506000,0,1000
3254,3254,6.508000,0,1003
3255,3255,6.510000,0,1001
3256,3256,6.512000,0,1000
3257,3257,6.514000,0,1001
3258,3258,6.516000,0,1001
3259,3259,6.518000,0,996
3260,3260,6.520000,0,993
3261,3261,6.522000,0,998
3262,3262,6.524000,0,1008
3263,3263,6.526000,0,1009
3264,3264,6.528000,0,999
3265,3265,6.530000,0,990
3266,3266,6.532000,0,992
3267,3267,6.534000,0,1002
3268,3268,6.536000,0,1008
3269,3269,6.538000,0,1004
3270,3270,6.540000,0,997
3271,3271,6.542000,0,995
3272,3272,6.544000,0,998
3273,3273,6.546000,0,999
3274,3274,6.548000,0,998
3275,3275,6.550000,0,1000
3276,3276,6.552000,0,1005
3277,3277,6.554000,0,1005
3278,3278,6.556000,0,997
3279,3279,6.558000,0,991
3280,3280,6.560000,0,995
3281,3281,6.562000,0,1003
3282,3282,6.564000,0,1007
3283,3283,6.566000,0,1003
3284,3284,6.568000,0,996
3285,3285,6.570000,0,994
3286,3286,6.572000,0,997
3287,3287,6.574000,0,1001
3288,3288,6.576000,0,1003
3289,3289,6.578000,0,1001
3290,3290,6.580000,0,998
3291,3291,6.582000,0,998
3292,3292,6.584000,0,1000
3293,3293,6.586000,0,1001
3294,3294,6.588000,0,999
3295,3295,6.590000,0,996
3296,3296,6.592000,0,998
3297,3297,6.594000,0,1002
3298,3298,6.596000,0,1004
3299,3299,6.598000,0,1000
3300,3300,6.600000,0,994
3301,3301,6.602000,0,995
3302,3302,6.604000,0,1001
3303,3303,6.606000,0,1005
3304,3304,6.608000,0,1001
3305,3305,6.610000,0,997
3306,3306,6.612000,0,997
3307,3307,6.614000,0,1001
3308,3308,6.616000,0,1001
3309,3309,6.618000,0,998
3310,3310,6.620000,0,998
3311,3311,6.622000,0,1002
3312,3312,6.624000,0,1003
3313,3313,6.626000,0,999
3314,3314,6.628000,0,994
3315,3315,6.630000,0,997
3316,3316,6.632000,0,1004
3317,3317,6.634000,0,1005
3318,3318,6.636000,0,999
3319,3319,6.638000,0,993
3320,3320,6.640000,0,996
3321,3321,6.642000,0,1004
3322,3322,6.644000,0,1005
3323,3323,6.646000,0,999
3324,3324,6.648000,0,994
3325,3325,6.650000,0,999
3326,3326,6.652000,0,1004
3327,3327,6.654000,0,1001
3328,3328,6.656000,1,995
3329,3329,6.658000,1,995
3330,3330,6.660000,1,1003
3331,3331,6.662000,1,1006
3332,3332,6.664000,1,1001
3333,3333,6.666000,1,993
3334,3334,6.668000,1,994
3335,3335,6.670000,1,1002
3336,3336,6.672000,1,1007
3337,3337,6.674000,1,1003
3338,3338,6.676000,1,995
3339,3339,6.678000,1,994
3340,3340,6.680000,1,1000
3341,3341,6.682000,1,1004
3342,3342,6.684000,1,1001
3343,3343,6.686000,1,997
3344,3344,6.688000,1,998
3345,3345,6.690000,1,1001
3346,3346,6.692000,1,1001
3347,3347,6.694000,1,998
3348,3348,6.696000,1,997
3349,3349,6.698000,1,999
3350,3350,6.700000,1,1002
3351,3351,6.702000,1,1003
3352,3352,6.704000,1,999
3353,3353,6.706000,1,995
3354,3354,6.708000,1,998
3355,3355,6.710000,1,1003
3356,3356,6.712000,1,1004
3357,3357,6.714000,1,998
3358,3358,6.716000,1,994
3359,3359,6.718000,1,999
3360,3360,6.720000,1,1006
3361,3361,6.722000,1,1004
3362,3362,6.724000,1,996
3363,3363,6.726000,1,992
3364,3364,6.728000,1,997
3365,3365,6.730000,1,1005
3366,3366,6.732000,1,1006
3367,3367,6.734000,1,1000
3368,3368,6.736000,1,994
3369,3369,6.738000,1,995
3370,3370,6.740000,1,1001
3371,3371,6.742000,1,1004
3372,3372,6.744000,1,1001
3373,3373,6.746000,1,997
3374,3374,6.748000,1,998
3375,3375,6.750000,1,1000
3376,3376,6.752000,1,1001
3377,3377,6.754000,1,998
3378,3378,6.756000,1,997
3379,3379,6.758000,1,1000
3380,3380,6.760000,1,1003
3381,3381,6.762000,1,1001
3382,3382,6.764000,1,996
3383,3383,6.766000,1,995
3384,3384,6.768000,1,999
3385,3385,6.770000,1,1005
3386,3386,6.772000,1,1004
3387,3387,6.774000,1,997
3388,3388,6.776000,1,993
3389,3389,6.778000,1,997
3390,3390,6.780000,1,1005
3391,3391,6.782000,1,1006
3392,3392,6.784000,1,999
3393,3393,6.786000,1,992
3394,3394,6.788000,1,994
3395,3395,6.790000,1,1002
3396,3396,6.792000,1,1007
3397,3397,6.794000,1,1002
3398,3398,6.796000,1,995
3399,3399,6.798000,1,994
3400,3400,6.800000,1,1000
3401,3401,6.802000,1,1004
3402,3402,6.804000,1,1001
3403,3403,6.806000,1,998
3404,3404,6.808000,1,999
3405,3405,6.810000,1,1002
3406,3406,6.812000,1,1000
3407,3407,6.814000,1,996
3408,3408,6.816000,1,996
3409,3409,6.818000,1,1001
3410,3410,6.820000,1,1004
3411,3411,6.822000,1,1002
3412,3412,6.824000,1,997
3413,3413,6.826000,1,996
3414,3414,6.828000,1,998
3415,3415,6.830000,1,1002
3416,3416,6.832000,1,1002
3417,3417,6.834000,1,999
3418,3418,6.836000,1,997
3419,3419,6.838000,1,999
3420,3420,6.840000,1,1002
3421,3421,6.842000,1,1001
3422,3422,6.844000,1,997
3423,3423,6.846000,1,995
3424,3424,6.848000,1,1000
3425,3425,6.850000,1,1006
3426,3426,6.852000,1,1005
3427,3427,6.854000,1,999
3428,3428,6.856000,1,993
3429,3429,6.858000,1,992
3430,3430,6.860000,1,997
3431,3431,6.862000,1,1005
3432,3432,6.864000,1,1010
3433,3433,6.866000,1,1008
3434,3434,6.868000,1,997
3435,3435,6.870000,1,987
3436,3436,6.872000,1,986
3437,3437,6.874000,1,997
3438,3438,6.876000,1,1010
3439,3439,6.878000,1,1016
3440,3440,6.880000,1,1009
3441,3441,6.882000,1,994
3442,3442,6.884000,1,982
3443,3443,6.886000,1,984
3444,3444,6.888000,1,998
3445,3445,6.890000,1,1015
3446,3446,6.892000,1,1020
3447,3447,6.894000,1,1007
3448,3448,6.896000,1,986
3449,3449,6.898000,1,979
3450,3450,6.900000,1,989
3451,3451,6.902000,1,1007
3452,3452,6.904000,1,1018
3453,3453,6.906000,1,1013
3454,3454,6.908000,1,996
3455,3455,6.910000,1,982
3456,3456,6.912000,1,987
3457,3457,6.914000,1,1004
3458,3458,6.916000,1,1013
3459,3459,6.918000,1,1005
3460,3460,6.920000,1,993
3461,3461,6.922000,1,992
3462,3462,6.924000,1,1003
3463,3463,6.926000,1,1009
3464,3464,6.928000,1,999
3465,3465,6.930000,1,985
3466,3466,6.932000,1,989
3467,3467,6.934000,1,1008
3468,3468,6.936000,1,1020
3469,3469,6.938000,1,1008
3470,3470,6.940000,1,986
3471,3471,6.942000,1,980
3472,3472,6.944000,1,999
3473,3473,6.946000,1,1017
3474,3474,6.948000,1,1008
3475,3475,6.950000,1,984
3476,3476,6.952000,1,982
3477,3477,6.954000,1,1012
3478,3478,6.956000,1,1034
3479,3479,6.958000,1,1011
3480,3480,6.960000,1,964
3481,3481,6.962000,1,952
3482,3482,6.964000,1,997
3483,3483,6.966000,1,1050
3484,3484,6.968000,1,1050
3485,3485,6.970000,1,999
3486,3486,6.972000,1,953
3487,3487,6.974000,1,954
3488,3488,6.976000,1,988
3489,3489,6.978000,1,1024
3490,3490,6.980000,1,1042
3491,3491,6.982000,1,1034
3492,3492,6.984000,1,997
3493,3493,6.986000,1,954
3494,3494,6.988000,1,951
3495,3495,6.990000,1,995
3496,3496,6.992000,1,1042
3497,3497,6.994000,1,1045
3498,3498,6.996000,1,1006
3499,3499,6.998000,1,970
3500,3500,7.000000,1,965
3501,3501,7.002000,1,984
3502,3502,7.004000,1,1009
3503,3503,7.006000,1,1028
3504,3504,7.008000,1,1030
3505,3505,7.010000,1,1007
3506,3506,7.012000,1,969
3507,3507,7.014000,1,955
3508,3508,7.016000,1,986
3509,3509,7.018000,1,1035
3510,3510,7.020000,1,1045
3511,3511,7.022000,1,1006
3512,3512,7.024000,1,967
3513,3513,7.026000,1,973
3514,3514,7.028000,1,1004
3515,3515,7.030000,1,1010
3516,3516,7.032000,1,992
3517,3517,7.034000,1,995
3518,3518,7.036000,1,1025
3519,3519,7.038000,1,1032
3520,3520,7.040000,1,993
3521,3521,7.042000,1,950
3522,3522,7.044000,1,956
3523,3523,7.046000,1,1010
3524,3524,7.048000,1,1056
3525,3525,7.050000,1,1049
3526,3526,7.052000,1,994
3527,3527,7.054000,1,942
3528,3528,7.056000,1,946
3529,3529,7.058000,1,1003
3530,3530,7.060000,1,1052
3531,3531,7.062000,1,1042
3532,3532,7.064000,1,994
3533,3533,7.066000,1,966
3534,3534,7.068000,1,982
3535,3535,7.070000,1,1004
3536,3536,7.072000,1,1002
3537,3537,7.074000,1,993
3538,3538,7.076000,1,1005
3539,3539,7.078000,1,1025
3540,3540,7.080000,1,1020
3541,3541,7.082000,1,986
3542,3542,7.084000,1,958
3543,3543,7.086000,1,969
3544,3544,7.088000,1,1011
3545,3545,7.090000,1,1049
3546,3546,7.092000,1,1047
3547,3547,7.094000,1,996
3548,3548,7.096000,1,938
3549,3549,7.098000,1,939
3550,3550,7.100000,1,1007
3551,3551,7.102000,1,1067
3552,3552,7.104000,1,1049
3553,3553,7.106000,1,980
3554,3554,7.108000,1,947
3555,3555,7.110000,1,981
3556,3556,7.112000,1,1022
3557,3557,7.114000,1,1018
3558,3558,7.116000,1,992
3559,3559,7.118000,1,991
3560,3560,7.120000,1,1010
3561,3561,7.122000,1,1007
3562,3562,7.124000,1,984
3563,3563,7.126000,1,984
3564,3564,7.128000,1,1016
3565,3565,7.130000,1,1031
3566,3566,7.132000,1,998
3567,3567,7.134000,1,956
3568,3568,7.136000,1,965
3569,3569,7.138000,1,1022
3570,3570,7.140000,1,1061
3571,3571,7.142000,1,1031
3572,3572,7.144000,1,962
3573,3573,7.146000,1,930
3574,3574,7.148000,1,973
3575,3575,7.150000,1,1046
3576,3576,7.152000,1,1071
3577,3577,7.154000,1,1020
3578,3578,7.156000,1,948
3579,3579,7.158000,1,934
3580,3580,7.160000,1,990
3581,3581,7.162000,1,1048
3582,3582,7.164000,1,1047
3583,3583,7.166000,1,1000
3584,3584,7.168000,1,964
3585,3585,7.170000,1,974
3586,3586,7.172000,1,1005
3587,3587,7.174000,1,1015
3588,3588,7.176000,1,1005
3589,3589,7.178000,1,1000
3590,3590,7.180000,1,1005
3591,3591,7.182000,1,998
3592,3592,7.184000,1,981
3593,3593,7.186000,1,986
3594,3594,7.188000,1,1019
3595,3595,7.190000,1,1033
3596,3596,7.192000,1,999
3597,3597,7.194000,1,958
3598,3598,7.196000,1,970
3599,3599,7.198000,1,1024
3600,3600,7.200000,1,1050
3601,3601,7.202000,1,1012
3602,3602,7.204000,1,958
3603,3603,7.206000,1,955
3604,3604,7.208000,1,1002
3605,3605,7.210000,1,1042
3606,3606,7.212000,1,1031
3607,3607,7.214000,1,994
3608,3608,7.216000,1,974
3609,3609,7.218000,1,982
3610,3610,7.220000,1,993
3611,3611,7.222000,1,997
3612,3612,7.224000,1,1006
3613,3613,7.226000,1,1026
3614,3614,7.228000,1,1029
3615,3615,7.230000,1,997
3616,3616,7.232000,1,960
3617,3617,7.234000,1,961
3618,3618,7.236000,1,1000
3619,3619,7.238000,1,1034
3620,3620,7.240000,1,1032
3621,3621,7.242000,1,1008
3622,3622,7.244000,1,984
3623,3623,7.246000,1,970
3624,3624,7.248000,1,971
3625,3625,7.250000,1,998
3626,3626,7.252000,1,1038
3627,3627,7.254000,1,1048
3628,3628,7.256000,1,1003
3629,3629,7.258000,1,946
3630,3630,7.260000,1,943
3631,3631,7.262000,1,1003
3632,3632,7.264000,1,1061
3633,3633,7.266000,1,1050
3634,3634,7.268000,1,986
3635,3635,7.270000,1,942
3636,3636,7.272000,1,964
3637,3637,7.274000,1,1020
3638,3638,7.276000,1,1046
3639,3639,7.278000,1,1018
3640,3640,7.280000,1,976
3641,3641,7.282000,1,966
3642,3642,7.284000,1,994
3643,3643,7.286000,1,1024
3644,3644,7.288000,1,1024
3645,3645,7.290000,1,996
3646,3646,7.292000,1,971
3647,3647,7.294000,1,977
3648,3648,7.296000,1,1012
3649,3649,7.298000,1,1037
3650,3650,7.300000,1,1021
3651,3651,7.302000,1,978
3652,3652,7.304000,1,956
3653,3653,7.306000,1,980
3654,3654,7.308000,1,1026
3655,3655,7.310000,1,1044
3656,3656,7.312000,1,1015
3657,3657,7.314000,1,972
3658,3658,7.316000,1,960
3659,3659,7.318000,1,989
3660,3660,7.320000,1,1025
3661,3661,7.322000,1,1033
3662,3662,7.324000,1,1008
3663,3663,7.326000,1,981
3664,3664,7.328000,1,977
3665,3665,7.330000,1,990
3666,3666,7.332000,1,999
3667,3667,7.334000,1,1004
3668,3668,7.336000,1,1021
3669,3669,7.338000,1,1035
3670,3670,7.340000,1,1009
3671,3671,7.342000,1,953
3672,3672,7.344000,1,934
3673,3673,7.346000,1,990
3674,3674,7.348000,1,1064
3675,3675,7.350000,1,1074
3676,3676,7.352000,1,1010
3677,3677,7.354000,1,940
3678,3678,7.356000,1,925
3679,3679,7.358000,1,975
3680,3680,7.360000,1,1051
3681,3681,7.362000,1,1084
3682,3682,7.364000,1,1029
3683,3683,7.366000,1,936
3684,3684,7.368000,1,912
3685,3685,7.370000,1,993
3686,3686,7.372000,1,1081
3687,3687,7.374000,1,1064
3688,3688,7.376000,1,969
3689,3689,7.378000,1,923
3690,3690,7.380000,1,975
3691,3691,7.382000,1,1043
3692,3692,7.384000,1,1046
3693,3693,7.386000,1,1004
3694,3694,7.388000,1,980
3695,3695,7.390000,1,985
3696,3696,7.392000,1,982
3697,3697,7.394000,1,974
3698,3698,7.396000,1,1000
3699,3699,7.398000,1,1051
3700,3700,7.400000,1,1058
3701,3701,7.402000,1,993
3702,3702,7.404000,1,924
3703,3703,7.406000,1,937
3704,3704,7.408000,1,1019
3705,3705,7.410000,1,1074
3706,3706,7.412000,1,1044
3707,3707,7.414000,1,973
3708,3708,7.416000,1,942
3709,3709,7.418000,1,975
3710,3710,7.420000,1,1026
3711,3711,7.422000,1,1045
3712,3712,7.424000,1,1016
3713,3713,7.426000,1,968
3714,3714,7.428000,1,949
3715,3715,7.430000,1,986
3716,3716,7.432000,1,1049
3717,3717,7.434000,1,1064
3718,3718,7.436000,1,1001
3719,3719,7.438000,1,926
3720,3720,7.440000,1,934
3721,3721,7.442000,1,1021
3722,3722,7.444000,1,1083
3723,3723,7.446000,1,1047
3724,3724,7.448000,1,961
3725,3725,7.450000,1,927
3726,3726,7.452000,1,975
3727,3727,7.454000,1,1042
3728,3728,7.456000,1,1055
3729,3729,7.458000,1,1012
3730,3730,7.460000,1,963
3731,3731,7.462000,1,954
3732,3732,7.464000,1,990
3733,3733,7.466000,1,1033
3734,3734,7.468000,1,1043
3735,3735,7.470000,1,1010
3736,3736,7.472000,1,964
3737,3737,7.474000,1,950
3738,3738,7.476000,1,989
3739,3739,7.478000,1,1045
3740,3740,7.480000,1,1055
3741,3741,7.482000,1,1002
3742,3742,7.484000,1,943
3743,3743,7.486000,1,945
3744,3744,7.488000,1,1006
3745,3745,7.490000,1,1056
3746,3746,7.492000,1,1045
3747,3747,7.494000,1,995
3748,3748,7.496000,1,959
3749,3749,7.498000,1,959
3750,3750,7.500000,1,984
3751,3751,7.502000,1,1021
3752,3752,7.504000,1,1049
3753,3753,7.506000,1,1036
3754,3754,7.508000,1,984
3755,3755,7.510000,1,943
3756,3756,7.512000,1,960
3757,3757,7.514000,1,1014
3758,3758,7.516000,1,1046
3759,3759,7.518000,1,1028
3760,3760,7.520000,1,989
3761,3761,7.522000,1,973
3762,3762,7.524000,1,991
3763,3763,7.526000,1,1012
3764,3764,7.528000,1,1002
3765,3765,7.530000,1,975
3766,3766,7.532000,1,977
3767,3767,7.534000,1,1025
3768,3768,7.536000,1,1062
3769,3769,7.538000,1,1029
3770,3770,7.540000,1,948
3771,3771,7.542000,1,915
3772,3772,7.544000,1,977
3773,3773,7.546000,1,1060
3774,3774,7.548000,1,1070
3775,3775,7.550000,1,1014
3776,3776,7.552000,1,968
3777,3777,7.554000,1,961
3778,3778,7.556000,1,968
3779,3779,7.558000,1,984
3780,3780,7.560000,1,1026
3781,3781,7.562000,1,1066
3782,3782,7.564000,1,1042
3783,3783,7.566000,1,961
3784,3784,7.568000,1,914
3785,3785,7.570000,1,960
3786,3786,7.572000,1,1046
3787,3787,7.574000,1,1073
3788,3788,7.576000,1,1025
3789,3789,7.578000,1,969
3790,3790,7.580000,1,957
3791,3791,7.582000,1,975
3792,3792,7.584000,1,997
3793,3793,7.586000,1,1018
3794,3794,7.588000,1,1036
3795,3795,7.590000,1,1026
3796,3796,7.592000,1,983
3797,3797,7.594000,1,953
3798,3798,7.596000,1,975
3799,3799,7.598000,1,1024
3800,3800,7.600000,1,1043
3801,3801,7.602000,1,1013
3802,3802,7.604000,1,969
3803,3803,7.606000,1,958
3804,3804,7.608000,1,993
3805,3805,7.610000,1,1040
3806,3806,7.612000,1,1048
3807,3807,7.614000,1,1003
3808,3808,7.616000,1,944
3809,3809,7.618000,1,941
3810,3810,7.620000,1,1007
3811,3811,7.622000,1,1071
3812,3812,7.624000,1,1054
3813,3813,7.626000,1,972
3814,3814,7.628000,1,927
3815,3815,7.630000,1,970
3816,3816,7.632000,1,1038
3817,3817,7.634000,1,1047
3818,3818,7.636000,1,1004
3819,3819,7.638000,1,975
3820,3820,7.640000,1,982
3821,3821,7.642000,1,995
3822,3822,7.644000,1,999
3823,3823,7.646000,1,1007
3824,3824,7.648000,1,1019
3825,3825,7.650000,1,1009
3826,3826,7.652000,1,982
3827,3827,7.654000,1,976
3828,3828,7.656000,1,1003
3829,3829,7.658000,1,1023
3830,3830,7.660000,1,1007
3831,3831,7.662000,1,982
3832,3832,7.664000,1,985
3833,3833,7.666000,1,1010
3834,3834,7.668000,1,1017
3835,3835,7.670000,1,998
3836,3836,7.672000,1,982
3837,3837,7.674000,1,993
3838,3838,7.676000,1,1015
3839,3839,7.678000,1,1014
3840,3840,7.680000,1,990
3841,3841,7.682000,1,976
3842,3842,7.684000,1,993
3843,3843,7.686000,1,1022
3844,3844,7.688000,1,1025
3845,3845,7.690000,1,1000
3846,3846,7.692000,1,974
3847,3847,7.694000,1,974
3848,3848,7.696000,1,999
3849,3849,7.698000,1,1026
3850,3850,7.700000,1,1030
3851,3851,7.702000,1,1002
3852,3852,7.704000,1,967
3853,3853,7.706000,1,964
3854,3854,7.708000,1,1000
3855,3855,7.710000,1,1037
3856,3856,7.712000,1,1035
3857,3857,7.714000,1,997
3858,3858,7.716000,1,964
3859,3859,7.718000,1,968
3860,3860,7.720000,1,1001
3861,3861,7.722000,1,1030
3862,3862,7.724000,1,1028
3863,3863,7.726000,1,1000
3864,3864,7.728000,1,974
3865,3865,7.730000,1,973
3866,3866,7.732000,1,997
3867,3867,7.734000,1,1025
3868,3868,7.736000,1,1029
3869,3869,7.738000,1,1000
3870,3870,7.740000,1,965
3871,3871,7.742000,1,967
3872,3872,7.744000,1,1009
3873,3873,7.746000,1,1039
3874,3874,7.748000,1,1019
3875,3875,7.750000,1,982
3876,3876,7.752000,1,980
3877,3877,7.754000,1,1004
3878,3878,7.756000,1,1001
3879,3879,7.758000,1,972
3880,3880,7.760000,1,982
3881,3881,7.762000,1,1043
3882,3882,7.764000,1,1072
3883,3883,7.766000,1,1004
3884,3884,7.768000,1,910
3885,3885,7.770000,1,913
3886,3886,7.772000,1,1021
3887,3887,7.774000,1,1103
3888,3888,7.776000,1,1065
3889,3889,7.778000,1,964
3890,3890,7.780000,1,922
3891,3891,7.782000,1,964
3892,3892,7.784000,1,1021
3893,3893,7.786000,1,1036
3894,3894,7.788000,1,1019
3895,3895,7.790000,1,1002
3896,3896,7.792000,1,992
3897,3897,7.794000,1,983
3898,3898,7.796000,1,979
3899,3899,7.798000,1,992
3900,3900,7.800000,1,1017
3901,3901,7.802000,1,1029
3902,3902,7.804000,1,1008
3903,3903,7.806000,1,975
3904,3904,7.808000,1,970
3905,3905,7.810000,1,1004
3906,3906,7.812000,1,1036
3907,3907,7.814000,1,1022
3908,3908,7.816000,1,972
3909,3909,7.818000,1,949
3910,3910,7.820000,1,992
3911,3911,7.822000,1,1054
3912,3912,7.824000,1,1057
3913,3913,7.826000,1,988
3914,3914,7.828000,1,929
3915,3915,7.830000,1,952
3916,3916,7.832000,1,1027
3917,3917,7.834000,1,1059
3918,3918,7.836000,1,1020
3919,3919,7.838000,1,972
3920,3920,7.840000,1,974
3921,3921,7.842000,1,1007
3922,3922,7.844000,1,1014
3923,3923,7.846000,1,990
3924,3924,7.848000,1,979
3925,3925,7.850000,1,1001
3926,3926,7.852000,1,1023
3927,3927,7.854000,1,1017
3928,3928,7.856000,1,997
3929,3929,7.858000,1,988
3930,3930,7.860000,1,984
3931,3931,7.862000,1,978
3932,3932,7.864000,1,991
3933,3933,7.866000,1,1030
3934,3934,7.868000,1,1052
3935,3935,7.870000,1,1013
3936,3936,7.872000,1,945
3937,3937,7.874000,1,929
3938,3938,7.876000,1,995
3939,3939,7.878000,1,1072
3940,3940,7.880000,1,1070
3941,3941,7.882000,1,988
3942,3942,7.884000,1,922
3943,3943,7.886000,1,945
3944,3944,7.888000,1,1024
3945,3945,7.890000,1,1064
3946,3946,7.892000,1,1030
3947,3947,7.894000,1,976
3948,3948,7.896000,1,964
3949,3949,7.898000,1,990
3950,3950,7.900000,1,1009
3951,3951,7.902000,1,1003
3952,3952,7.904000,1,994
3953,3953,7.906000,1,1006
3954,3954,7.908000,1,1026
3955,3955,7.910000,1,1019
3956,3956,7.912000,1,980
3957,3957,7.914000,1,951
3958,3958,7.916000,1,974
3959,3959,7.918000,1,1029
3960,3960,7.920000,1,1051
3961,3961,7.922000,1,1017
3962,3962,7.924000,1,974
3963,3963,7.926000,1,971
3964,3964,7.928000,1,992
3965,3965,7.930000,1,1000
3966,3966,7.932000,1,996
3967,3967,7.934000,1,1008
3968,3968,7.936000,1,1031
3969,3969,7.938000,1,1026
3970,3970,7.940000,1,983
3971,3971,7.942000,1,946
3972,3972,7.944000,1,962
3973,3973,7.946000,1,1020
3974,3974,7.948000,1,1060
3975,3975,7.950000,1,1039
3976,3976,7.952000,1,980
3977,3977,7.954000,1,945
3978,3978,7.956000,1,965
3979,3979,7.958000,1,1012
3980,3980,7.960000,1,1038
3981,3981,7.962000,1,1027
3982,3982,7.964000,1,1000
3983,3983,7.966000,1,983
3984,3984,7.968000,1,979
3985,3985,7.970000,1,983
3986,3986,7.972000,1,995
3987,3987,7.974000,1,1016
3988,3988,7.976000,1,1030
3989,3989,7.978000,1,1017
3990,3990,7.980000,1,983
3991,3991,7.982000,1,962
3992,3992,7.984000,1,980
3993,3993,7.986000,1,1018
3994,3994,7.988000,1,1032
3995,3995,7.990000,1,1012
3996,3996,7.992000,1,987
3997,3997,7.994000,1,981
3998,3998,7.996000,1,988
3999,3999,7.998000,1,996
4000,4000,8.000000,1,1007
4001,4001,8.002000,1,1021
4002,4002,8.004000,1,1022
4003,4003,8.006000,1,993
4004,4004,8.008000,1,958
4005,4005,8.010000,1,963
4006,4006,8.012000,1,1019
4007,4007,8.014000,1,1065
4008,4008,8.016000,1,1036
4009,4009,8.018000,1,955
4010,4010,8.020000,1,922
4011,4011,8.022000,1,985
4012,4012,8.024000,1,1069
4013,4013,8.026000,1,1064
4014,4014,8.028000,1,976
4015,4015,8.030000,1,918
4016,4016,8.032000,1,969
4017,4017,8.034000,1,1062
4018,4018,8.036000,1,1076
4019,4019,8.038000,1,992
4020,4020,8.040000,1,914
4021,4021,8.042000,1,938
4022,4022,8.044000,1,1035
4023,4023,8.046000,1,1090
4024,4024,8.048000,1,1043
4025,4025,8.050000,1,954
4026,4026,8.052000,1,921
4027,4027,8.054000,1,971
4028,4028,8.056000,1,1041
4029,4029,8.058000,1,1057
4030,4030,8.060000,1,1013
4031,4031,8.062000,1,968
4032,4032,8.064000,1,972
4033,4033,8.066000,1,1004
4034,4034,8.068000,1,1013
4035,4035,8.070000,1,992
4036,4036,8.072000,1,981
4037,4037,8.074000,1,1005
4038,4038,8.076000,1,1036
4039,4039,8.078000,1,1025
4040,4040,8.080000,1,975
4041,4041,8.082000,1,945
4042,4042,8.084000,1,978
4043,4043,8.086000,1,1040
4044,4044,8.088000,1,1054
4045,4045,8.090000,1,1003
4046,4046,8.092000,1,953
4047,4047,8.094000,1,967
4048,4048,8.096000,1,1017
4049,4049,8.098000,1,1033
4050,4050,8.100000,1,1000
4051,4051,8.102000,1,975
4052,4052,8.104000,1,992
4053,4053,8.106000,1,1020
4054,4054,8.108000,1,1015
4055,4055,8.110000,1,986
4056,4056,8.112000,1,975
4057,4057,8.114000,1,1000
4058,4058,8.116000,1,1025
4059,4059,8.118000,1,1015
4060,4060,8.120000,1,981
4061,4061,8.122000,1,969
4062,4062,8.124000,1,999
4063,4063,8.126000,1,1034
4064,4064,8.128000,1,1030
4065,4065,8.130000,1,988
4066,4066,8.132000,1,956
4067,4067,8.134000,1,969
4068,4068,8.136000,1,1013
4069,4069,8.138000,1,1044
4070,4070,8.140000,1,1031
4071,4071,8.142000,1,989
4072,4072,8.144000,1,961
4073,4073,8.146000,1,972
4074,4074,8.148000,1,1005
4075,4075,8.150000,1,1023
4076,4076,8.152000,1,1015
4077,4077,8.154000,1,1003
4078,4078,8.156000,1,1001
4079,4079,8.158000,1,995
4080,4080,8.160000,1,979
4081,4081,8.162000,1,976
4082,4082,8.164000,1,1003
4083,4083,8.166000,1,1038
4084,4084,8.168000,1,1034
4085,4085,8.170000,1,987
4086,4086,8.172000,1,951
4087,4087,8.174000,1,972
4088,4088,8.176000,1,1021
4089,4089,8.178000,1,1038
4090,4090,8.180000,1,1010
4091,4091,8.182000,1,983
4092,4092,8.184000,1,987
4093,4093,8.186000,1,1001
4094,4094,8.188000,1,998
4095,4095,8.190000,1,988
4096,4096,8.192000,1,997
4097,4097,8.194000,1,1021
4098,4098,8.196000,1,1025
4099,4099,8.198000,1,995
4100,4100,8.200000,1,965
4101,4101,8.202000,1,973
4102,4102,8.204000,1,1015
4103,4103,8.206000,1,1039
4104,4104,8.208000,1,1015
4105,4105,8.210000,1,973
4106,4106,8.212000,1,966
4107,4107,8.214000,1,1001
4108,4108,8.216000,1,1032
4109,4109,8.218000,1,1020
4110,4110,8.220000,1,982
4111,4111,8.222000,1,967
4112,4112,8.224000,1,994
4113,4113,8.226000,1,1029
4114,4114,8.228000,1,1027
4115,4115,8.230000,1,991
4116,4116,8.232000,1,965
4117,4117,8.234000,1,982
4118,4118,8.236000,1,1017
4119,4119,8.238000,1,1026
4120,4120,8.240000,1,1004
4121,4121,8.242000,1,986
4122,4122,8.244000,1,993
4123,4123,8.246000,1,1002
4124,4124,8.248000,1,995
4125,4125,8.250000,1,989
4126,4126,8.252000,1,1004
4127,4127,8.254000,1,1022
4128,4128,8.256000,1,1012
4129,4129,8.258000,1,982
4130,4130,8.260000,1,974
4131,4131,8.262000,1,999
4132,4132,8.264000,1,1022
4133,4133,8.266000,1,1013
4134,4134,8.268000,1,989
4135,4135,8.270000,1,986
4136,4136,8.272000,1,1002
4137,4137,8.274000,1,1008
4138,4138,8.276000,1,997
4139,4139,8.278000,1,993
4140,4140,8.280000,1,1003
4141,4141,8.282000,1,1008
4142,4142,8.284000,1,1000
4143,4143,8.286000,1,993
4144,4144,8.288000,1,998
4145,4145,8.290000,1,1001
4146,4146,8.292000,1,995
4147,4147,8.294000,1,992
4148,4148,8.296000,1,1006
4149,4149,8.298000,1,1020
4150,4150,8.300000,1,1008
4151,4151,8.302000,1,979
4152,4152,8.304000,1,971
4153,4153,8.306000,1,995
4154,4154,8.308000,1,1025
4155,4155,8.310000,1,1028
4156,4156,8.312000,1,1007
4157,4157,8.314000,1,982
4158,4158,8.316000,1,971
4159,4159,8.318000,1,979
4160,4160,8.320000,1,1003
4161,4161,8.322000,1,1031
4162,4162,8.324000,1,1038
4163,4163,8.326000,1,1007
4164,4164,8.328000,1,962
4165,4165,8.330000,1,951
4166,4166,8.332000,1,991
4167,4167,8.334000,1,1039
4168,4168,8.336000,1,1045
4169,4169,8.338000,1,1005
4170,4170,8.340000,1,966
4171,4171,8.342000,1,968
4172,4172,8.344000,1,998
4173,4173,8.346000,1,1019
4174,4174,8.348000,1,1013
4175,4175,8.350000,1,998
4176,4176,8.352000,1,998
4177,4177,8.354000,1,1006
4178,4178,8.356000,1,998
4179,4179,8.358000,1,978
4180,4180,8.360000,1,979
4181,4181,8.362000,1,1014
4182,4182,8.364000,1,1040
4183,4183,8.366000,1,1017
4184,4184,8.368000,1,970
4185,4185,8.370000,1,957
4186,4186,8.372000,1,995
4187,4187,8.374000,1,1034
4188,4188,8.376000,1,1029
4189,4189,8.378000,1,992
4190,4190,8.380000,1,973
4191,4191,8.382000,1,990
4192,4192,8.384000,1,1012
4193,4193,8.386000,1,1011
4194,4194,8.388000,1,995
4195,4195,8.390000,1,992
4196,4196,8.392000,1,1002
4197,4197,8.394000,1,1007
4198,4198,8.396000,1,999
4199,4199,8.398000,1,990
4200,4200,8.400000,1,995
4201,4201,8.402000,1,1008
4202,4202,8.404000,1,1011
4203,4203,8.406000,1,997
4204,4204,8.408000,1,984
4205,4205,8.410000,1,991
4206,4206,8.412000,1,1008
4207,4207,8.414000,1,1014
4208,4208,8.416000,1,1004
4209,4209,8.418000,1,991
4210,4210,8.420000,1,989
4211,4211,8.422000,1,996
4212,4212,8.424000,1,1004
4213,4213,8.426000,1,1008
4214,4214,8.428000,1,1005
4215,4215,8.430000,1,997
4216,4216,8.432000,1,992
4217,4217,8.434000,1,995
4218,4218,8.436000,1,1003
4219,4219,8.438000,1,1006
4220,4220,8.440000,1,1002
4221,4221,8.442000,1,997
4222,4222,8.444000,1,997
4223,4223,8.446000,1,1000
4224,4224,8.448000,1,1000
4225,4225,8.450000,1,997
4226,4226,8.452000,1,997
4227,4227,8.454000,1,1003
4228,4228,8.456000,1,1008
4229,4229,8.458000,1,1002
4230,4230,8.460000,1,989
4231,4231,8.462000,1,986
4232,4232,8.464000,1,1001
4233,4233,8.466000,1,1016
4234,4234,8.468000,1,1013
4235,4235,8.470000,1,993
4236,4236,8.472000,1,979
4237,4237,8.474000,1,988
4238,4238,8.476000,1,1009
4239,4239,8.478000,1,1020
4240,4240,8.480000,1,1009
4241,4241,8.482000,1,988
4242,4242,8.484000,1,980
4243,4243,8.486000,1,993
4244,4244,8.488000,1,1011
4245,4245,8.490000,1,1016
4246,4246,8.492000,1,1003
4247,4247,8.494000,1,989
4248,4248,8.496000,1,987
4249,4249,8.498000,1,997
4250,4250,8.500000,1,1007
4251,4251,8.502000,1,1007
4252,4252,8.504000,1,1000
4253,4253,8.506000,1,997
4254,4254,8.508000,1,997
4255,4255,8.510000,1,997
4256,4256,8.512000,1,996
4257,4257,8.514000,1,1001
4258,4258,8.516000,1,1008
4259,4259,8.518000,1,1005
4260,4260,8.520000,1,993
4261,4261,8.522000,1,987
4262,4262,8.524000,1,997
4263,4263,8.526000,1,1012
4264,4264,8.528000,1,1013
4265,4265,8.530000,1,996
4266,4266,8.532000,1,982
4267,4267,8.534000,1,990
4268,4268,8.536000,1,1010
4269,4269,8.538000,1,1017
4270,4270,8.540000,1,1002
4271,4271,8.542000,1,985
4272,4272,8.544000,1,989
4273,4273,8.546000,1,1006
4274,4274,8.548000,1,1011
4275,4275,8.550000,1,999
4276,4276,8.552000,1,991
4277,4277,8.554000,1,999
4278,4278,8.556000,1,1006
4279,4279,8.558000,1,1001
4280,4280,8.560000,1,992
4281,4281,8.562000,1,996
4282,4282,8.564000,1,1006
4283,4283,8.566000,1,1005
4284,4284,8.568000,1,994
4285,4285,8.570000,1,990
4286,4286,8.572000,1,1002
4287,4287,8.574000,1,1012
4288,4288,8.576000,1,1005
4289,4289,8.578000,1,989
4290,4290,8.580000,1,986
4291,4291,8.582000,1,1001
4292,4292,8.584000,1,1013
4293,4293,8.586000,1,1008
4294,4294,8.588000,1,994
4295,4295,8.590000,1,988
4296,4296,8.592000,1,998
4297,4297,8.594000,1,1007
4298,4298,8.596000,1,1003
4299,4299,8.598000,1,995
4300,4300,8.600000,1,996
4301,4301,8.602000,1,1005
4302,4302,8.604000,1,1007
4303,4303,8.606000,1,995
4304,4304,8.608000,1,988
4305,4305,8.610000,1,996
4306,4306,8.612000,1,1011
4307,4307,8.614000,1,1012
4308,4308,8.616000,1,997
4309,4309,8.618000,1,984
4310,4310,8.620000,1,990
4311,4311,8.622000,1,1007
4312,4312,8.624000,1,1015
4313,4313,8.626000,1,1005
4314,4314,8.628000,1,989
4315,4315,8.630000,1,986
4316,4316,8.632000,1,997
4317,4317,8.634000,1,1010
4318,4318,8.636000,1,1010
4319,4319,8.638000,1,1000
4320,4320,8.640000,1,992
4321,4321,8.642000,1,993
4322,4322,8.644000,1,999
4323,4323,8.646000,1,1003
4324,4324,8.648000,1,1003
4325,4325,8.650000,1,1001
4326,4326,8.652000,1,999
4327,4327,8.654000,1,998
4328,4328,8.656000,1,998
4329,4329,8.658000,1,998
4330,4330,8.660000,1,997
4331,4331,8.662000,1,1000
4332,4332,8.664000,1,1006
4333,4333,8.666000,1,1006
4334,4334,8.668000,1,997
4335,4335,8.670000,1,988
4336,4336,8.672000,1,992
4337,4337,8.674000,1,1006
4338,4338,8.676000,1,1014
4339,4339,8.678000,1,1004
4340,4340,8.680000,1,988
4341,4341,8.682000,1,987
4342,4342,8.684000,1,1002
4343,4343,8.686000,1,1013
4344,4344,8.688000,1,1005
4345,4345,8.690000,1,990
4346,4346,8.692000,1,991
4347,4347,8.694000,1,1004
4348,4348,8.696000,1,1010
4349,4349,8.698000,1,1000
4350,4350,8.700000,1,989
4351,4351,8.702000,1,993
4352,4352,8.704000,0,1007
4353,4353,8.706000,0,1010
4354,4354,8.708000,0,999
4355,4355,8.710000,0,990
4356,4356,8.712000,0,994
4357,4357,8.714000,0,1005
4358,4358,8.716000,0,1007
4359,4359,8.718000,0,1000
4360,4360,8.720000,0,994
4361,4361,8.722000,0,996
4362,4362,8.724000,0,1002
4363,4363,8.726000,0,1004
4364,4364,8.728000,0,999
4365,4365,8.730000,0,995
4366,4366,8.732000,0,998
4367,4367,8.734000,0,1004
4368,4368,8.736000,0,1003
4369,4369,8.738000,0,996
4370,4370,8.740000,0,993
4371,4371,8.742000,0,1000
4372,4372,8.744000,0,1007
4373,4373,8.746000,0,1003
4374,4374,8.748000,0,994
4375,4375,8.750000,0,993
4376,4376,8.752000,0,1003
4377,4377,8.754000,0,1008
4378,4378,8.756000,0,1000
4379,4379,8.758000,0,990
4380,4380,8.760000,0,993
4381,4381,8.762000,0,1007
4382,4382,8.764000,0,1011
4383,4383,8.766000,0,1000
4384,4384,8.768000,0,988
4385,4385,8.770000,0,990
4386,4386,8.772000,0,1005
4387,4387,8.774000,0,1012
4388,4388,8.776000,0,1004
4389,4389,8.778000,0,991
4390,4390,8.780000,0,990
4391,4391,8.782000,0,1000
4392,4392,8.784000,0,1007
4393,4393,8.786000,0,1004
4394,4394,8.788000,0,996
4395,4395,8.790000,0,995
4396,4396,8.792000,0,1000
4397,4397,8.794000,0,1002
4398,4398,8.796000,0,999
4399,4399,8.798000,0,996
4400,4400,8.800000,0,999
4401,4401,8.802000,0,1006
4402,4402,8.804000,0,1005
4403,4403,8.806000,0,995
4404,4404,8.808000,0,990
4405,4405,8.810000,0,996
4406,4406,8.812000,0,1008
4407,4407,8.814000,0,1009
4408,4408,8.816000,0,999
4409,4409,8.818000,0,990
4410,4410,8.820000,0,993
4411,4411,8.822000,0,1003
4412,4412,8.824000,0,1006
4413,4413,8.826000,0,1000
4414,4414,8.828000,0,997
4415,4415,8.830000,0,999
4416,4416,8.832000,0,1002
4417,4417,8.834000,0,999
4418,4418,8.836000,0,994
4419,4419,8.838000,0,997
4420,4420,8.840000,0,1005
4421,4421,8.842000,0,1007
4422,4422,8.844000,0,999
4423,4423,8.846000,0,991
4424,4424,8.848000,0,994
4425,4425,8.850000,0,1003
4426,4426,8.852000,0,1007
4427,4427,8.854000,0,1002
4428,4428,8.856000,0,994
4429,4429,8.858000,0,994
4430,4430,8.860000,0,1001
4431,4431,8.862000,0,1005
4432,4432,8.864000,0,1001
4433,4433,8.866000,0,994
4434,4434,8.868000,0,994
4435,4435,8.870000,0,1003
4436,4436,8.872000,0,1008
4437,4437,8.874000,0,1002
4438,4438,8.876000,0,992
4439,4439,8.878000,0,991
4440,4440,8.880000,0,1001
4441,4441,8.882000,0,1008
4442,4442,8.884000,0,1004
4443,4443,8.886000,0,995
4444,4444,8.888000,0,994
4445,4445,8.890000,0,1001
4446,4446,8.892000,0,1004
4447,4447,8.894000,0,999
4448,4448,8.896000,0,994
4449,4449,8.898000,0,998
4450,4450,8.900000,0,1006
4451,4451,8.902000,0,1005
4452,4452,8.904000,0,996
4453,4453,8.906000,0,991
4454,4454,8.908000,0,998
4455,4455,8.910000,0,1007
4456,4456,8.912000,0,1007
4457,4457,8.914000,0,996
4458,4458,8.916000,0,990
4459,4459,8.918000,0,997
4460,4460,8.920000,0,1007
4461,4461,8.922000,0,1006
4462,4462,8.924000,0,996
4463,4463,8.926000,0,992
4464,4464,8.928000,0,999
4465,4465,8.930000,0,1007
4466,4466,8.932000,0,1003
4467,4467,8.934000,0,994
4468,4468,8.936000,0,994
4469,4469,8.938000,0,1003
4470,4470,8.940000,0,1008
4471,4471,8.942000,0,1000
4472,4472,8.944000,0,992
4473,4473,8.946000,0,994
4474,4474,8.948000,0,1003
4475,4475,8.950000,0,1007
4476,4476,8.952000,0,1001
4477,4477,8.954000,0,994
4478,4478,8.956000,0,996
4479,4479,8.958000,0,1002
4480,4480,8.960000,0,1003
4481,4481,8.962000,0,997
4482,4482,8.964000,0,995
4483,4483,8.966000,0,1001
4484,4484,8.968000,0,1007
4485,4485,8.970000,0,1002
4486,4486,8.972000,0,992
4487,4487,8.974000,0,992
4488,4488,8.976000,0,1002
4489,4489,8.978000,0,1010
4490,4490,8.980000,0,1004
4491,4491,8.982000,0,993
4492,4492,8.984000,0,991
4493,4493,8.986000,0,1001
4494,4494,8.988000,0,1007
4495,4495,8.990000,0,1002
4496,4496,8.992000,0,995
4497,4497,8.994000,0,995
4498,4498,8.996000,0,1002
4499,4499,8.998000,0,1005
4500,4500,9.000000,0,1000
4501,4501,9.002000,0,993
4502,4502,9.004000,0,994
4503,4503,9.006000,0,1002
4504,4504,9.008000,0,1008
4505,4505,9.010000,0,1004
4506,4506,9.012000,0,995
4507,4507,9.014000,0,990
4508,4508,9.016000,0,996
4509,4509,9.018000,0,1005
4510,4510,9.020000,0,1008
4511,4511,9.022000,0,1002
4512,4512,9.024000,0,995
4513,4513,9.026000,0,995
4514,4514,9.028000,0,998
4515,4515,9.030000,0,1001
4516,4516,9.032000,0,1001
4517,4517,9.034000,0,1001
4518,4518,9.036000,0,1003
4519,4519,9.038000,0,1001
4520,4520,9.040000,0,995
4521,4521,9.042000,0,992
4522,4522,9.044000,0,999
4523,4523,9.046000,0,1007
4524,4524,9.048000,0,1007
4525,4525,9.050000,0,999
4526,4526,9.052000,0,993
4527,4527,9.054000,0,995
4528,4528,9.056000,0,1000
4529,4529,9.058000,0,1003
4530,4530,9.060000,0,1003
4531,4531,9.062000,0,1001
4532,4532,9.064000,0,999
4533,4533,9.066000,0,997
4534,4534,9.068000,0,996
4535,4535,9.070000,0,998
4536,4536,9.072000,0,1003
4537,4537,9.074000,0,1006
4538,4538,9.076000,0,1002
4539,4539,9.078000,0,994
4540,4540,9.080000,0,991
4541,4541,9.082000,0,998
4542,4542,9.084000,0,1008
4543,4543,9.086000,0,1007
4544,4544,9.088000,0,998
4545,4545,9.090000,0,991
4546,4546,9.092000,0,995
4547,4547,9.094000,0,1003
4548,4548,9.096000,0,1005
4549,4549,9.098000,0,1000
4550,4550,9.100000,0,996
4551,4551,9.102000,0,999
4552,4552,9.104000,0,1002
4553,4553,9.106000,0,999
4554,4554,9.108000,0,994
4555,4555,9.110000,0,997
4556,4556,9.112000,0,1005
4557,4557,9.114000,0,1007
4558,4558,9.116000,0,999
4559,4559,9.118000,0,991
4560,4560,9.120000,0,993
4561,4561,9.122000,0,1003
4562,4562,9.124000,0,1008
4563,4563,9.126000,0,1003
4564,4564,9.128000,0,994
4565,4565,9.130000,0,993
4566,4566,9.132000,0,999
4567,4567,9.134000,0,1006
4568,4568,9.136000,0,1004
4569,4569,9.138000,0,996
4570,4570,9.140000,0,991
4571,4571,9.142000,0,998
4572,4572,9.144000,0,1008
4573,4573,9.146000,0,1008
4574,4574,9.148000,0,998
4575,4575,9.150000,0,989
4576,4576,9.152000,0,993
4577,4577,9.154000,0,1004
4578,4578,9.156000,0,1009
4579,4579,9.158000,0,1003
4580,4580,9.160000,0,996
4581,4581,9.162000,0,995
4582,4582,9.164000,0,999
4583,4583,9.166000,0,1000
4584,4584,9.168000,0,999
4585,4585,9.170000,0,1001
4586,4586,9.172000,0,1004
4587,4587,9.174000,0,1002
4588,4588,9.176000,0,995
4589,4589,9.178000,0,992
4590,4590,9.180000,0,998
4591,4591,9.182000,0,1007
4592,4592,9.184000,0,1007
4593,4593,9.186000,0,998
4594,4594,9.188000,0,991
4595,4595,9.190000,0,994
4596,4596,9.192000,0,1003
4597,4597,9.194000,0,1005
4598,4598,9.196000,0,1001
4599,4599,9.198000,0,997
4600,4600,9.200000,0,998
4601,4601,9.202000,0,1001
4602,4602,9.204000,0,1000
4603,4603,9.206000,0,996
4604,4604,9.208000,0,997
4605,4605,9.210000,0,1003
4606,4606,9.212000,0,1006
4607,4607,9.214000,0,999
4608,4608,9.216000,0,991
4609,4609,9.218000,0,993
4610,4610,9.220000,0,1004
4611,4611,9.222000,0,1010
4612,4612,9.224000,0,1002
4613,4613,9.226000,0,991
4614,4614,9.228000,0,992
4615,4615,9.230000,0,1002
4616,4616,9.232000,0,1007
4617,4617,9.234000,0,1002
4618,4618,9.236000,0,996
4619,4619,9.238000,0,996
4620,4620,9.240000,0,1000
4621,4621,9.242000,0,1001
4622,4622,9.244000,0,998
4623,4623,9.246000,0,998
4624,4624,9.248000,0,1002
4625,4625,9.250000,0,1003
4626,4626,9.252000,0,998
4627,4627,9.254000,0,995
4628,4628,9.256000,0,999
4629,4629,9.258000,0,1002
4630,4630,9.260000,0,1000
4631,4631,9.262000,0,997
4632,4632,9.264000,0,999
4633,4633,9.266000,0,1003
4634,4634,9.268000,0,1001
4635,4635,9.270000,0,996
4636,4636,9.272000,0,996
4637,4637,9.274000,0,1001
4638,4638,9.276000,0,1005
4639,4639,9.278000,0,1002
4640,4640,9.280000,0,995
4641,4641,9.282000,0,994
4642,4642,9.284000,0,1000
4643,4643,9.286000,0,1005
4644,4644,9.288000,0,1003
4645,4645,9.290000,0,996
4646,4646,9.292000,0,994
4647,4647,9.294000,0,999
4648,4648,9.296000,0,1003
4649,4649,9.298000,0,1002
4650,4650,9.300000,0,998
4651,4651,9.302000,0,997
4652,4652,9.304000,0,1000
4653,4653,9.306000,0,1001
4654,4654,9.308000,0,999
4655,4655,9.310000,0,998
4656,4656,9.312000,0,1000
4657,4657,9.314000,0,1001
4658,4658,9.316000,0,999
4659,4659,9.318000,0,997
4660,4660,9.320000,0,998
4661,4661,9.322000,0,1001
4662,4662,9.324000,0,1002
4663,4663,9.326000,0,1000
4664,4664,9.328000,0,998
4665,4665,9.330000,0,999
4666,4666,9.332000,0,1001
4667,4667,9.334000,0,1000
4668,4668,9.336000,0,997
4669,4669,9.338000,0,997
4670,4670,9.340000,0,1003
4671,4671,9.342000,0,1006
4672,4672,9.344000,0,999
4673,4673,9.346000,0,991
4674,4674,9.348000,0,993
4675,4675,9.350000,0,1005
4676,4676,9.352000,0,1010
4677,4677,9.354000,0,1001
4678,4678,9.356000,0,990
4679,4679,9.358000,0,993
4680,4680,9.360000,0,1004
4681,4681,9.362000,0,1009
4682,4682,9.364000,0,1001
4683,4683,9.366000,0,992
4684,4684,9.368000,0,994
4685,4685,9.370000,0,1002
4686,4686,9.372000,0,1004
4687,4687,9.374000,0,1000
4688,4688,9.376000,0,997
4689,4689,9.378000,0,999
4690,4690,9.380000,0,1002
4691,4691,9.382000,0,999
4692,4692,9.384000,0,995
4693,4693,9.386000,0,998
4694,4694,9.388000,0,1005
4695,4695,9.390000,0,1005
4696,4696,9.392000,0,997
4697,4697,9.394000,0,991
4698,4698,9.396000,0,996
4699,4699,9.398000,0,1006
4700,4700,9.400000,0,1008
4701,4701,9.402000,0,1000
4702,4702,9.404000,0,992
4703,4703,9.406000,0,993
4704,4704,9.408000,0,1001
4705,4705,9.410000,0,1006
4706,4706,9.412000,0,1003
4707,4707,9.414000,0,997
4708,4708,9.416000,0,996
4709,4709,9.418000,0,999
4710,4710,9.420000,0,1000
4711,4711,9.422000,0,999
4712,4712,9.424000,0,999
4713,4713,9.426000,0,1003
4714,4714,9.428000,0,1003
4715,4715,9.430000,0,996
4716,4716,9.432000,0,991
4717,4717,9.434000,0,997
4718,4718,9.436000,0,1007
4719,4719,9.438000,0,1008
4720,4720,9.440000,0,999
4721,4721,9.442000,0,991
4722,4722,9.444000,0,995
4723,4723,9.446000,0,1003
4724,4724,9.448000,0,1005
4725,4725,9.450000,0,1000
4726,4726,9.452000,0,996
4727,4727,9.454000,0,999
4728,4728,9.456000,0,1002
4729,4729,9.458000,0,999
4730,4730,9.460000,0,995
4731,4731,9.462000,0,997
4732,4732,9.464000,0,1005
4733,4733,9.466000,0,1007
4734,4734,9.468000,0,999
4735,4735,9.470000,0,990
4736,4736,9.472000,0,993
4737,4737,9.474000,0,1005
4738,4738,9.476000,0,1010
4739,4739,9.478000,0,1002
4740,4740,9.480000,0,992
4741,4741,9.482000,0,992
4742,4742,9.484000,0,1000
4743,4743,9.486000,0,1006
4744,4744,9.488000,0,1003
4745,4745,9.490000,0,998
4746,4746,9.492000,0,998
4747,4747,9.494000,0,1000
4748,4748,9.496000,0,998
4749,4749,9.498000,0,995
4750,4750,9.500000,0,999
4751,4751,9.502000,0,1007
4752,4752,9.504000,0,1007
4753,4753,9.506000,0,995
4754,4754,9.508000,0,987
4755,4755,9.510000,0,995
4756,4756,9.512000,0,1009
4757,4757,9.514000,0,1010
4758,4758,9.516000,0,998
4759,4759,9.518000,0,989
4760,4760,9.520000,0,994
4761,4761,9.522000,0,1005
4762,4762,9.524000,0,1006
4763,4763,9.526000,0,999
4764,4764,9.528000,0,995
4765,4765,9.530000,0,997
4766,4766,9.532000,0,1002
4767,4767,9.534000,0,1002
4768,4768,9.536000,0,998
4769,4769,9.538000,0,997
4770,4770,9.540000,0,1001
4771,4771,9.542000,0,1003
4772,4772,9.544000,0,999
4773,4773,9.546000,0,994
4774,4774,9.548000,0,997
4775,4775,9.550000,0,1005
4776,4776,9.552000,0,1006
4777,4777,9.554000,0,999
4778,4778,9.556000,0,992
4779,4779,9.558000,0,994
4780,4780,9.560000,0,1003
4781,4781,9.562000,0,1006
4782,4782,9.564000,0,1002
4783,4783,9.566000,0,996
4784,4784,9.568000,0,996
4785,4785,9.570000,0,1000
4786,4786,9.572000,0,1001
4787,4787,9.574000,0,999
4788,4788,9.576000,0,999
